3,-10.2770609605,-9.92075015797,-9.52122773854,-9.0891575663,-8.63853533934,-8.18598633217,-7.7497296136,-7.3482653843,-6.99888240875,-6.71611699176,-6.51031742899,-6.38647322607,-6.34345389555,-6.37376826222,-6.46390536689,-6.59525770536,-6.74556328028,-6.89074216966,-7.00695390501,-7.07267137855,-7.07056073098,-6.98897648578,-6.82292434552,-6.57440393158,-6.25211159345,-5.87055018567,-5.44865029031,-5.00804958019,-4.57120060988,-4.15948225554,-3.79147875058,-3.48156632511,-3.23891428769,-3.06696771211,-2.96343481924,-2.92075594855,-2.92698619515,-2.96698552573,-3.0237843934,-3.07998408971,-3.11906049592,-3.12646483816,-3.09045011018,-3.00259070408,-2.85799968695,-2.65527855568,-2.39625541558,-2.08557832321,-1.73023105667,-1.33902942089,-0.922139031935,-0.490634028645,-0.0560956833618,0.369764339525,0.775475963579,1.15019218238,1.48408037211,1.76870559021,1.99737098095,2.16537006286,2.27010625047,2.31104772482,2.2895081688,2.20827053139,2.07109593054,1.88217849416,1.6456167629,1.36497217535,1.04297538495,0.681423321349,0.281286616037,-0.156978867705,-0.632948435522,-1.1456280443,-1.69281000796,-2.27046870903,-2.87228161796,-3.48935236022,-4.11019423367,-4.72100615037,-5.30624112631,-5.84943346996,-6.33421862354,-6.74545351562,-7.07032934349,-7.29936572013,-7.42718581346,-7.45299475213,-7.38071444295,-7.21876255521,-6.97949796411,-6.67838676097,-6.33296971628,-5.96173067895,-5.58297216719,-5.21379743823,-4.86927936235,-4.56187011532,-4.30107692133,-4.0934012147,-3.94251371078,-3.84961751833,-3.8139369746,-3.83326261917,-3.90448355036,-4.02404725603,-4.18830237247,-4.39369916956,-4.63684331877,-4.91441854886,-5.22301117316,-5.55888219155,-5.91773909382,-6.29455881261,-6.68350556121,-7.077973282,-7.4707635413,-7.85438828274,-8.2214661696,-8.56516489093,-8.87963269482,-9.16036214021,-9.40443772243,-9.61063522498,-9.77936157841,-9.9124460453,-10.0128131735,-10.0840824835,-10.1301477851,-10.1547901002,-10.1613729238,-10.1526577995,-10.1307629414,-10.0972695101,-10.0534610301,-10.0006628907,-9.94063212289,-9.87593428871,-9.81023690439,-9.74845030284,-9.69665916271,-9.66181084561,-9.65115762511,-9.67148484617,-9.72819151757,-9.82431944162,-9.95964785574,-10.1299795679,-10.3267394855,-10.5369861023,-10.7439010061,-10.9277725272,-11.0674312589,-11.1420339756,-11.1330371228,-11.0261606585,-10.813125312,-10.4929559366,-10.0726811113,-9.56732060311,-8.9991301123,-8.39615660885,-7.79023602197,-7.21462707881,-6.70151222512,-6.27960458984,-5.97207946173,-5.79500430432,-5.75638013122,-5.85583779284,-6.08496466462,-6.42817900749,-6.86402750482,-7.36675974499,-7.90803179747,-8.45860624674,-8.98994231152,-9.4756002258,-9.89241290839,-10.2214011585,-10.4484247607,-10.5645718314,-10.5662948343,-10.4553065031,-10.238253977,-9.92619477446,-9.53390256511,-9.07903263728,-8.58117626276,-8.06083151395,-7.53831853396,-7.03267257748,-6.56055893465,-6.13526757926,-5.76585709195,-5.4565218773,-5.2062505968,-5.00882668228,-4.85319604699,-4.72419649201,-4.60361178503,-4.47148419292,-4.30759492415,-4.09300496235,-3.81154163799,-3.45112045151,-3.00480613509,-2.471538103,-1.85646876007,-1.17088546642,-0.431707608321,0.339429540564,1.11747062313,1.875556944,2.586876767,3.22663211069,3.77397961776,4.21378857936,4.53806081313,4.74687665587,4.84876697464,4.86045849291,4.80599357523,4.71528053066,4.62218134969,4.56228593693,4.57055141527,4.67899881658,4.91465521439,5.29790627001,5.84138369141,6.54945857303,7.41835182596,8.43681460014,9.58728128329,10.8473597565,12.1915007634,13.5926821537,15.0239551087,16.4597273848,17.8766999668,19.2544227884,20.5754852236,21.82540055,22.9922743446,24.0663610951,25.0396106704,25.9052893216,26.6577333036,27.2922623279,27.8052496427,28.194319428,28.4586233328,28.5991383246,28.6189281811,28.5233199835,28.3199624819,28.0187516973,27.6316266767,27.172251534,26.6556071552,26.0975177416,25.5141357587,24.9214059914,24.3345264985,23.7674214707,23.232238091,22.7388764668,22.2945591331,21.9034457048,21.5663002667,21.2802246083,21.0384785909,20.8304174211,20.6415814365,20.453974891,20.2465653848,19.996025286,19.6777208143,19.2669328254,18.740265612,18.0771682921,17.2614623481,16.2827450505,15.1375281954,13.8299792741,12.3721592177,10.7836947639,9.09087852922,7.32524848321,5.52175300632,3.71665133235,1.94532653674,0.240195894197,-1.3711094909,-2.86715528578,-4.2336092726,-5.46359770315,-6.55752009966,-7.52237427604,-8.37067688388,-9.11908611523,-9.78684322821,-10.3941507981,-10.9606010539,-11.5037595614,-12.0379983041,-12.5736566516,-13.1165870652,-13.6681138648,-14.2253990592,-14.7821722144,-15.3297461664,-15.8582121571,-16.3576912787,-16.8195169215,-17.2372356056,-17.6073385166,-17.9296685839,-18.207482918,-18.4471837339,-18.6577597423,-18.8500025225,-19.0355771293,-19.2260322194,-19.4318325763,-19.6614877465,-19.9208372387,-20.2125379656,-20.5357848441,-20.8862809393,-21.2564587383,-21.6359389195,-22.0121980633,-22.3714034107,-22.6993619038,-22.9825222897,-23.2089626146,-23.3692914548,-23.4573916296,-23.4709422353,-23.4116696189,-23.2852992893,-23.1012061306,-22.8717865761,-22.6116007632,-22.3363526311,-22.0617895599,-21.8026094057,-21.5714612197,-21.3781165675,-21.2288718719,-21.1262205483,-21.0688101625,-21.051678177,-21.0667428751,-21.1035146292,-21.1499855633,-21.1936504488,-21.22260608,-21.2266692229,-21.1984446563,-21.1342661133,-21.0349262901,-20.9061102089,-20.7584516539,-20.6071469619,-20.4710850003,-20.3714866119,-20.3300898789,-20.366966652,-20.4981068294,-20.732954407,-21.0721169255,-21.5054907929,-22.0110428152,-22.5544587009,-23.0898112406,-23.5613176999,-23.9061556092,-24.0581996797,-23.9524421871,-23.5297762085,-22.7417651366,-21.555000279,-19.9546654038,-17.9469825975,-15.5603019724,-12.8447078307,-9.87013256805,-6.72308425349,-3.50219477268,-0.312876393589,2.73856803526,5.55100371971,8.03430545201,10.1146080716,11.7386196013,12.8766906698,13.5243848695,13.7023588966,13.4544424862,12.8439098797,11.948057648,10.8513441642,9.63749432977,8.38111494548,7.13948380479,5.94525031797,4.80079950343,3.67497082992,2.50268201302,1.18778834246,-0.390775561502,-2.36984719659,-4.89048316283,-8.08489492788,-12.0629822691,-16.8996809554,-22.6243208031,-29.2130385302,-36.5850222611,-44.6030133717,-53.0781004603,-61.7784573521,-70.4413454459,-78.7874523265,-86.5364901889,-93.4229306294,-99.2107955131,-103.706538031,-106.769213265,-108.317336534,-108.332049065,-106.856447608,-103.991182169,-99.8866767119,-94.7325679229,-88.7451672035,-82.1539064548,-75.1878054001,-68.062980578,-60.9720994997,-54.0764778902,-47.5012467003,-41.333711202,-35.6247232424,-30.3926239611,-25.6291154752,-21.3063034351,-17.3841233994,-13.8174170073,-10.5620445557,-7.57958875975,-4.84039751216,-2.32490878388,-0.0233783875377,2.0657245959,3.9382895853,5.58768588919,7.00801008566,8.19707021737,9.15878423439,9.90475945741,10.4549221018,10.8371711526,11.0861295892,11.241149991,11.3437948624,11.435050682,11.5525468078,11.7280362293,11.9853575446,12.339041717,12.7936602346,13.3439410726,13.9756126604,14.6668797264,15.3903921799,16.1155406385,16.8108996464,17.4466406723,17.9967496213,18.4409055063,18.7659056496,18.9665559232,19.0459800527,19.0153385799,18.8929849405,18.7031224863,18.4740606488,18.2361982789,18.0198841811,17.853315545,17.7606316415,17.7603418866,17.8641957829,18.0765615039,18.3943358106,18.8073664665,19.2993336523,19.8490108521,20.4318077039,21.0214856553,21.5919303997,22.1188626923,22.5813724128,22.9631716117,23.2534821639,23.4475022521,23.5464309616,23.5570680048,23.4910415098,23.3637465504,23.1930973663,22.9982052248,22.7980914158,22.6105322103,22.4511121904,22.3325370495,22.2642294169,22.2522038142,22.2991919621,22.4049698474,22.566825101,22.7800981281,23.038732979,23.3357836643,23.6638375189,24.0153373514,24.3828053638,24.7589902311,25.1369705862,25.510251172,25.8728819968,26.2196178667,26.5461188821,26.8491757366,27.1269307698,27.3790596637,27.6068805181,27.8133654508,28.0030416881,28.1817808981,28.3564852752,28.5346866025,28.7240811899,28.9320295756,29.1650543301,29.4283708526,29.7254839306,30.0578773207,30.4248159322,30.823272057,31.2479800107,31.691618283,32.1451144578,32.5980645553,33.0392536989,33.457258245,33.8411007117,34.1809188852,34.4686010345,34.6983324831,34.8669973732,34.9743857308,35.0231716053,35.0186531759,34.9682775139,34.881005227,34.766595935,34.6349082297,34.4953047606,34.3562353224,34.2250417094,34.1079922818,34.0105168663,33.937579177,33.8940995121,33.8853291183,33.9170814675,33.9957446261,34.1280307956,34.3204602261,34.5786217182,34.9062939346,35.3045431842,35.7709279688,36.2989353347,36.8777497901,37.4924162885,38.1244105612,38.7525798313,39.3543717055,39.9072351594,40.3900595394,40.7845171035,41.0761903182,41.2553929161,41.3176284175,41.2636664244,41.0992517211,40.8344916941,40.4829921809,40.0608290121,39.5854508699,39.0746081397,38.5453926634,38.0134558463,37.49244917,36.9937043452,36.5261434147,36.0963854204,35.7089982664,35.3668333135,35.0713764266,34.8230529834,34.6214360661,34.4653261597,34.3526950251,34.2805124121,34.244497961,34.2388585644,34.2560810477,34.2868496246,34.3201465562,34.3435734168,34.3439014179,34.3078259054,34.2228671435,34.0783319008,33.8662324973,33.5820547569,33.2252749226,32.7995475792,32.3125197211,31.7752664369,31.201386368,30.6058351752,30.0036080652,29.4084037403,28.8314083122,28.280326629,27.7587605489,27.2659924579,26.7971836393,26.3439479295,25.8952182681,25.4382932502,24.9599369382,24.4474097121,23.8893292384,23.2762939625,22.6012402503,21.8595416185,21.0488890582,20.1690120629,19.2213094893,18.2084582678,17.1340577898,16.0023509302,14.8180424366,13.586215721,12.3123331125,11.0022936616,9.66251615971,8.30001233756,6.92241619302,5.53794062296,4.15524217614,2.78318797581,1.43053380533,0.105536516814,-1.18446522811,-2.43346217203,-3.63713779858,-4.79314857974,-5.90129398808,-6.96355954702,-7.98402792442,-8.96866479541,-9.92499640643,-10.8617032348,-11.7881582337,-12.7139388488,-13.6483397989,-14.5999095623,-15.5760289253,-16.5825456602,-17.6234754446,-18.7007752784,-19.8141922322,-20.9611880864,-22.1369394999,-23.3344132089,-24.5445156675,-25.7563162555,-26.9573428236,-28.1339479368,-29.2717430434,-30.3560948247,-31.3726721902,-32.3080240071,-33.1501585467,-33.8890887161,-34.5173048347,-35.0301397291,-35.4259983708,-35.7064345532,-35.8760684658,-35.9423496797,-35.9151783736,-35.806402802,-35.629213678,-35.3974583614,-35.124901806,-34.8244681643,-34.5075054399,-34.1831225522,-33.8576506291,-33.5342767782,-33.2128891449,-32.8901578063,-32.5598583794,-32.2134256916,-31.8407051244,-31.4308510539,-30.9733070377,-30.4587929364,-29.880221735,-29.2334745273,-28.5179756327,-27.7370289703,-26.8978979224,-26.0116300991,-25.0926430944,-24.1580970548,-23.2270861372,-22.3196860496,-21.455900918,-20.6545604325,-19.9322266977,-19.3021773516,-18.7735351163,-18.350612326,-18.0325310292,-17.813164337,-17.6814229209,-17.6218833761,-17.6157253842,-17.6419160876,-17.6785567243,-17.7042911831,-17.6996696568,-17.6483624273,-17.5381281796,-17.3614578662,-17.1158391745,-16.8036175273,-16.4314653372,-16.0095084754,-15.5501933211,-15.0670048769,-14.5731622951,-14.0804199246,-13.5980887148,-13.1323660682,-12.6860258519,-12.2584795492,-11.8461801777,-11.4433077996,-11.0426528797,-10.6366025521,-10.2181334907,-9.78172037291,-9.32407814067,-8.84466844877,-8.34591662857,-7.83310656331,-7.31394794133,-6.79784295751,-6.29491522738,-5.81489782607,-5.36600386172,-4.95391588442,-4.58102564589,-4.24603218594,-3.94396610639,-3.66665614679,-3.4035975646,-3.14312792256,-2.87377222538,-2.58559251316,-2.27137156211,-1.92747776796,-1.55429662956,-1.15616851865,-0.740835628506,-0.318465211411,0.099626737183
3,6.22929614301,6.31708091912,6.38279931581,6.41134272351,6.39024408139,6.31081674317,6.16894126335,5.96543714213,5.70600046441,5.40073037762,5.0633032218,4.70987952689,4.3578440248,4.02448223802,3.72569109419,3.47480875061,3.28163411702,3.15169243829,3.08579111064,3.07989905023,3.12537117639,3.20952402962,3.31654713363,3.4287075157,3.52777444353,3.59656226475,3.62046604074,3.58885175288,3.49616350943,3.34262626092,3.13445405874,2.88351868828,2.60648710239,2.32349196924,2.05645016152,1.82718191337,1.65550368888,1.55746877683,1.54391231594,1.61942484611,1.78183492901,2.02223242812,2.32551588867,2.67140574368,3.03583343278,3.39259598966,3.71515522314,3.97845838992,4.16066136345,4.24464424849,4.21922206689,4.07996883622,3.82959202911,3.4778169219,3.04076824464,2.53987087241,2.00033122244,1.449303095,0.913880095842,0.419084413032,-0.0139680226009,-0.369557215713,-0.638367812891,-0.817931759587,-0.912481065474,-0.932249482385,-0.892316885364,-0.811130278857,-0.708856548434,-0.605723671442,-0.520491376813,-0.469163676829,-0.464019966208,-0.513004212291,-0.619477721106,-0.782312793472,-0.996283150178,-1.25269179911,-1.54016704461,-1.84555217721,-2.15481472839,-2.45390822627,-2.72953336095,-2.96976444736,-3.16452721055,-3.30593094886,-3.38846919287,-3.40910750456,-3.3672764147,-3.26478398208,-3.10565838534,-2.89592794788,-2.64334466033,-2.3570574029,-2.04724218914,-1.72469845984,-1.40042254547,-1.08517177559,-0.78903521676,-0.521029446423,-0.288739762172,-0.098028314498,0.0471696577301,0.144942559844,0.195378255141,0.200414006167,0.163568673134,0.0895805186849,-0.0160129012487,-0.147309598449,-0.298451442024,-0.463973737688,-0.639076825713,-0.819812570037,-1.00318678228,-1.18718202955,-1.37070559401,-1.55346751335,-1.73579622642,-1.91840555667,-2.10213581027,-2.28770069534,-2.47547618562,-2.66536371699,-2.85674776132,-3.048550175,-3.23936614018,-3.42765383007,-3.61194445504,-3.79104053403,-3.96417590746,-4.13111907148,-4.29221068224,-4.448335869,-4.60084133979,-4.75141470964,-4.90194750003,-5.05440272259,-5.21070251246,-5.37264181136,-5.54182311017,-5.71959837038,-5.90700081795,-6.10465297149,-6.31264730403,-6.5304096192,-6.75656863168,-6.9888642159,-7.22412804631,-7.45836264636,-7.68692952876,-7.90483767702,-8.10710475244,-8.2891496388,-8.44716938617,-8.57845705436,-8.68162778369,-8.75673565523,-8.80528030931,-8.83011684396,-8.83529253044,-8.82583752812,-8.80753384839,-8.78667905482,-8.7698516368,-8.76367669777,-8.77458558243,-8.80856215029,-8.87087145034,-8.96577264869,-9.09622574333,-9.26360927665,-9.46747264615,-9.70535099671,-9.97267280187,-10.2627898823,-10.5671560624,-10.8756727482,-11.1772064311,-11.460264518,-11.7137935124,-11.928040378,-12.0953979239,-12.2111426986,-12.2739730218,-12.2862674505,-12.254009658,-12.1863615695,-12.0949081371,-11.9926386368,-11.8927643604,-11.8074949036,-11.7469006749,-11.7179765186,-11.723992462,-11.7641775786,-11.8337391655,-11.9241801363,-12.0238497227,-12.1186501722,-12.1928253563,-12.2297728747,-12.2128434262,-12.1261126395,-11.9551247029,-11.6876104585,-11.3141754146,-10.8289388606,-10.2300890196,-9.52030611822,-8.70699950495,-7.80230872176,-6.82283167539,-5.78906369096,-4.72455608478,-3.6548286377,-2.60609391171,-1.60386996903,-0.671569521217,0.170843291337,0.908042130676,1.53029856983,2.03415314671,2.42275428006,2.70583900441,2.89934647645,3.02467283923,3.10759506154,3.17691174501,3.26286934005,3.39546046925,3.60269450645,3.90894700756,4.33349285507,4.88931809306,5.58228848319,6.41073056138,7.36545543369,8.43022864155,9.58266261996,10.7954823116,12.0380896915,13.2783301347,14.4843448887,15.6263826852,16.6784427913,17.6196328798,18.4351468385,19.1167970974,19.6630698794,20.0787073593,20.3738563872,20.5628579172,20.6627828595,20.6918459335,20.6678452692,20.6067776394,20.5217639717,20.4223865721,20.3144912284,20.2004501589,20.079823488,19.9503060975,19.8088116069,19.6525324427,19.4798271071,19.2908203727,19.0876523482,18.8743687526,18.6564970903,18.4403925208,18.2324570593,18.03833529,17.8621732505,17.7060019545,17.5692809087,17.4486157622,17.3376509977,17.2271333932,17.1051420459,16.957481444,16.768231054,16.5204361146,16.1969109077,15.7811113573,15.2580227611,14.6150041458,13.8425343424,12.9348154319,11.8902041262,10.7114575267,9.40579324676,7.98477297098,6.46402294628,4.86280620893,3.20346163452,1.51072563002,-0.189045868039,-1.86873415317,-3.50136754099,-5.06105264906,-6.52389004706,-7.86883355658,-9.07845218026,-10.139556855,-11.0436601221,-11.7872444275,-12.3718236963,-12.8037929096,-13.0940710553,-13.2575530562,-13.3123952505,-13.279166421,-13.17990223,-13.0371053614,-12.8727368726,-12.7072462963,-12.5586886356,-12.4419749747,-12.3682994054,-12.3447779882,-12.3743253998,-12.455781852,-12.584287131,-12.7518810205,-12.9482913339,-13.1618541128,-13.3804972404,-13.5927106996,-13.7884258424,-13.959733499,-14.1013861676,-14.2110505626,-14.2893000626,-14.3393591102,-14.3666316435,-14.3780623635,-14.3813923637,-14.3843782978,-14.3940456619,-14.416041362,-14.4541392385,-14.5099363703,-14.5827596854,-14.6697830917,-14.7663361838,-14.8663679911,-14.9630149832,-15.0492135978,-15.1182954016,-15.1645079706,-15.1834153247,-15.1721460165,-15.1294729117,-15.0557256336,-14.9525545908,-14.8225839961,-14.669008197,-14.4951972912,-14.304380684,-14.0994690355,-13.8830562342,-13.6576153026,-13.4258681326,-13.1912724872,-12.9585361072,-12.7340431791,-12.5260685981,-12.3446643246,-12.2011309355,-12.1070346286,-12.0727910114,-12.1059049018,-12.2090210048,-12.3779943418,-12.6002235424,-12.8534983434,-13.1055907259,-13.3147659992,-13.4313091076,-13.4000606976,-13.1638485695,-12.6675955491,-11.8627962237,-10.7119923312,-9.19284762215,-7.30143229936,-5.05437523944,-2.48962513267,0.33432865658,3.34079933311,6.43870490172,9.52760319962,12.5036298241,15.2659297323,17.7231230974,19.7993274854,21.4392719983,22.6120832494,23.3133953618,23.5655339486,23.4156447032,22.9317774461,22.1970905529,21.3024996058,20.3382458294,19.3849908299,18.505140689,17.7351514584,17.0795577381,16.5073876828,15.9514788459,15.310995184,14.4571804755,13.2420895604,11.5097447615,9.10890276407,5.90641899414,1.80008927466,-3.27014953292,-9.31366144085,-16.2839751735,-24.077546508,-32.5365492149,-41.4554771338,-50.5910315059,-59.674529112,-68.4259148865,-76.5683999183,-83.8427628337,-90.020433123,-94.9146007241,-98.3887513794,-100.362201433,-100.81239338,-99.773911508,-97.3343807212,-93.6276122996,-88.8245433627,-83.1226638156,-76.7347162328,-69.8774758864,-62.7613644038,-55.581527103,-48.5108271554,-41.6950031969,-35.2500279637,-29.2615194133,-23.7859119372,-18.853004124,-14.4694623138,-10.622869614,-7.2859571408,-4.42072486048,-1.98223999102,0.0780207746784,1.80935226266,3.25954201578,4.47311610842,5.49007661974,6.34509159746,7.06709841192,7.67928272393,8.19939361047,8.64034834504,9.0110681993,9.31747211331,9.56354219329,9.75236785246,9.88707719578,9.9715764791,10.0110406963,10.0121282876,9.98292686843,9.93266996945,9.87129182679,9.80890347259,9.75527554832,9.71940091934,9.70918602272,9.73128923186,9.79109386066,9.89277885279,10.0394360174,10.2331805166,10.475210115,10.7657854937,11.1041249627,11.4882285475,11.9146656138,12.3783744049,12.8725289329,13.3885270963,13.9161433833,14.443871041,14.9594539234,15.4505798069,15.9056783148,16.3147425009,16.6700788812,16.9668903552,17.2036117424,17.3819473231,17.5065997637,17.5847235733,17.6251756548,17.6376625942,17.6318937031,17.6168395106,17.6001708162,17.5879196812,17.5843676428,17.5921340975,17.612413823,17.6452995609,17.6901239982,17.7457642295,17.8108684908,17.8839862433,17.9636044385,18.0481110382,18.1357187159,18.224385717,18.3117669,18.3952170073,18.4718528342,18.5386654756,18.5926629892,18.6310208856,18.6512232446,18.6511886534,18.629388302,18.5849734827,18.5179320318,18.4292856586,18.3213236384,18.197847437,18.0643819781,17.9282985054,17.7987948043,17.6866911417,17.6040220497,17.56343072,17.5773996184,17.6573742374,17.8128544349,18.0505384848,18.3736080828,18.7812371844,19.2683923127,19.8259656091,20.4412448721,21.098681502,21.7808763989,22.4696756967,23.1472596661,23.7971198889,24.4048470994,24.9586873129,25.4498591065,25.8726535634,26.2243562357,26.5050363599,26.7172442803,26.8656476283,26.9566250554,26.9978272004,26.9977102986,26.9650487684,26.9084383436,26.8358091754,26.7539765944,26.6682634132,26.5822295682,26.4975413576,26.4140035471,26.3297641212,26.2416847654,26.1458519248,26.0381855794,25.9150881698,25.7740670795,25.6142631352,25.4368261065,25.2450956392,25.044569734,24.8426684936,24.6483238667,24.4714429539,24.3223012732,24.2109229067,24.146497582,24.1368722712,24.1881393898,24.3043283767,24.4871958701,24.7361047519,25.0479849683,25.4173772682,25.8365704143,26.2958479082,26.7838583267,27.288113526,27.7956034265,28.2934981033,28.769890456,29.2145184615,29.6193975264,29.9792931103,30.2919729349,30.5581966425,30.7814273028,30.967280976,31.1227636588,31.2553744036,31.3721741074,31.4789272263,31.5794163518,31.6750077458,31.7645128954,31.8443523498,31.908989957,31.9515741165,31.9647021161,31.9412158443,31.8749413708,31.7612982702,31.5977236506,31.3838775329,31.1216183173,30.8147580916,30.4686264929,30.0894880754,29.6838712003,29.2578755847,28.8165295474,28.363265242,27.8995700043,27.4248547472,26.9365575212,26.4304741781,25.9012815746,25.3431956105,24.7506901473,24.119195916,23.445701674,22.7291924432,21.9708797254,21.1742032386,20.344609469,19.4891358527,18.6158480316,17.7331895989,16.8493081985,15.9714188151,15.1052554969,14.2546483822,13.4212462499,12.6043887901,11.801120046,11.0063268445,10.2129840039,9.41249076089,8.5950877683,7.75034791473,6.86773411413,5.93721187908,4.94989502276,3.89869207665,2.77891198402,1.58878216917,0.329830613594,-0.992914003465,-2.37094345017,-3.79254029712,-5.24330864843,-6.70695450148,-8.16627912194,-9.60432144192,-11.0055601328,-12.3570667851,-13.6494926625,-14.8777762304,-16.0414788469,-17.1446906437,-18.1954937139,-19.2050191347,-20.1861813846,-21.1522123139,-22.1151421405,-23.0843835087,-24.0655649127,-25.0597327788,-26.0630011934,-27.0666806915,-28.0578690881,-29.0204432382,-29.9363544614,-30.7871047859,-31.5552680602,-32.2259202515,-32.7878562324,-33.2344937524,-33.564395743,-33.7813761368,-33.8941891098,-33.9158350057,-33.8625466436,-33.7525458616,-33.6046801719,-33.4370607694,-33.2658231456,-33.1041184699,-32.9614181497,-32.8431783997,-32.7508710601,-32.6823471503,-32.6324666398,-32.5939062662,-32.5580490208,-32.5158633146,-32.4586938884,-32.3789066824,-32.2703529823,-32.1286416349,-31.9512296671,-31.7373590613,-31.4878786811,-31.2049938391,-30.8919813744,-30.5528969046,-30.1922867238,-29.8149042777,-29.4254242622,-29.0281481488,-28.6267029989,-28.2237484055,-27.8207204124,-27.4176515548,-27.013108468,-26.6042807312,-26.1872376466,-25.7573467026,-25.3098225279,-24.8403519706,-24.3457230015,-23.8243757184,-23.2767954605,-22.7056820131,-22.1158540419,-21.5138811706,-20.9074731461,-20.3046914392,-19.7130784289,-19.1388182364,-18.5860473481,-18.0564202216,-17.5490056709,-17.0605473842,-16.5860721013,-16.1197785806,-15.6560966372,-15.1907748151,-14.7218429843,-14.2503052851,-13.7804490503,-13.3197027753,-12.8780343586,-12.4669419491,-12.0981460975,-11.7821366134,-11.5267549292,-11.3359988305,-11.2092189454,-11.1408353647,-11.1206409384,-11.1346816604,-11.1666245414,-11.1994525044,-11.217276636,-11.2070371983,-11.1598785548,-11.0720258667,-10.9450553435,-10.7855257098,-10.6040169162,-10.4136936753,-10.2285674236,-10.0616637304,-9.92330879307,-9.81972825687,-9.75210825863,-9.71621002473,-9.70256491788,-9.69721521245,-9.6829133582,-9.64065274657,-9.55137792084,-9.39771259239,-9.16554960226
3,-1.44556323189,-1.28788747194,-1.17984563421,-1.12021970362,-1.10509942026,-1.12784543551,-1.17925588332,-1.24796013867,-1.32103654685,-1.38482170722,-1.42585228881,-1.43186044162,-1.39273344005,-1.30134857802,-1.1542051506,-0.951794393722,-0.6986719456,-0.40322187923,-0.0771236914371,0.265447309211,0.608839227104,0.937099663015,1.23522982692,1.49042247998,1.69317836803,1.83819369738,1.9249217934,1.95773604659,1.94565614385,1.90164110936,1.84149603874,1.78247990382,1.74173497682,1.73468035144,1.77352000728,1.86600891825,2.01459960151,2.21605818153,2.4615962491,2.73751610012,3.02631676201,3.3081615261,3.5625696298,3.77017018342,3.91434930472,3.98263326885,3.96767968268,3.86779101518,3.68691487111,3.43414763761,3.12280711209,2.76918031308,2.39108063595,2.00636092727,1.63152458173,1.28055605496,0.964058381418,0.688744034852,0.457283787404,0.268482640157,0.117726840966,-0.00236693384065,-0.101171151572,-0.189201015473,-0.277258351371,-0.375613603896,-0.493268013027,-0.637334951253,-0.812576965567,-1.02113025316,-1.26243828779,-1.53339990241,-1.8287157333,-2.14139442947,-2.46336144429,-2.78610287919,-3.10127696802,-3.40123597638,-3.67941897208,-3.93059732918,-4.15097588263,-4.33816969649,-4.49108700352,-4.6097524296,-4.69510234141,-4.74877829167,-4.77293747957,-4.77009284092,-4.74299095063,-4.69453347159,-4.62774656134,-4.54580081814,-4.45208006532,-4.35028935114,-4.24458174653,-4.13967274018,-4.04090405032,-3.95421859379,-3.88601658277,-3.8428787403,-3.83116430126,-3.85651551831,-3.92332277256,-4.0342206652,-4.18969165614,-4.38784747592,-4.62443948543,-4.89311954101,-5.18593694682,-5.49402055051,-5.80836443232,-6.12061660746,-6.42376614349,-6.7126357427,-6.9841123358,-7.23708391283,-7.47209169467,-7.69074706099,-7.89499667208,-8.0863422118,-8.26513004461,-8.43001960356,-8.57771819476,-8.70303665607,-8.79927901473,-8.85893498245,-8.874602269,-8.84003170078,-8.75116675775,-8.60704370121,-8.41043011335,-8.16810716673,-7.89074101773,-7.59233671359,-7.28931829627,-6.99932492119,-6.73984785213,-6.52685106679,-6.37351590606,-6.28922933937,-6.27890152299,-6.34265835155,-6.47591485272,-6.66980012436,-6.91187698284,-7.1870810789,-7.47879528261,-7.7699749827,-8.04424705529,-8.28691734758,-8.48583566519,-8.63208035755,-8.72043461165,-8.74963359959,-8.72236773791,-8.64503510759,-8.52724748906,-8.3811103183,-8.22031664024,-8.05911659831,-7.91124331814,-7.788888477,-7.70182200466,-7.65673786034,-7.6568826963,-7.70199090634,-7.78851456964,-7.91010667456,-8.05829533992,-8.2232769258,-8.39475532303,-8.56276026384,-8.71838634919,-8.85440488729,-8.96571202957,-9.04958919244,-9.10576528545,-9.13628398514,-9.14519179331,-9.13807260596,-9.12146138969,-9.10217359705,-9.08658924616,-9.07993267469,-9.08559208897,-9.10452723023,-9.1348172941,-9.17140208792,-9.20606453716,-9.22768994243,-9.22281600395,-9.17645867064,-9.07316578813,-8.89821861035,-8.6388760795,-8.28554260518,-7.83273907832,-7.27976941571,-6.63100021546,-5.8957075582,-5.08749017708,-4.22329785076,-3.32217121932,-2.40382627832,-1.48723674074,-0.589366573311,0.275816633262,1.09795566273,1.87050302605,2.59051657744,3.25811077888,3.87566107933,4.44688279541,4.97591381591,5.46652227897,5.92153775154,6.34257084023,6.7300464682,7.08353578776,7.40233588549,7.68621856693,7.93625121905,8.15558424094,8.35010017694,8.5288286788,8.70404850462,8.89102341563,9.10735338398,9.37196471698,9.70380882424,10.1203833334,10.6362234998,11.2615287706,12.0010835168,12.853601128,13.8115709456,14.8616265123,15.9853922813,17.160714535,18.3631480019,19.5675552644,20.7496799529,21.8875722315,22.9627701856,23.9611678165,24.8735256101,25.6956019525,26.4279044859,27.0750822981,27.645003938,28.1475916998,28.5935068015,28.9927998314,29.3536529851,29.6813422235,29.977536084,30.2400223919,30.4629155468,30.6373487837,30.7526028959,30.7975710464,30.76241403,30.640226955,30.4285217339,30.1303339562,29.754789266,29.3170116837,28.8373198815,28.3397310071,27.8498684417,27.3924429531,26.9885389874,26.6529819736,26.3920812395,26.2020303074,26.0681985874,25.9654669875,25.8596514131,25.7099346258,25.4721043706,25.10229131,24.5608298414,23.8158398815,22.8461533829,21.6432833737,20.2122458573,18.5711799942,16.7498500094,14.7872333168,12.728486989,10.6216288961,8.51426843258,6.45068006081,4.46944177732,2.60177359459,0.870621541451,-0.709548351741,-2.13234575667,-3.39858283314,-4.51509050127,-5.49337652882,-6.34825403417,-7.09653550825,-7.75585248117,-8.34363111549,-8.87623291093,-9.36825792476,-9.83200394403,-10.2770763466,-10.7101470543,-11.1348643136,-11.5519161402,-11.9592484441,-12.3524344733,-12.7251859978,-13.0699888285,-13.3788353262,-13.6440142075,-13.8589045727,-14.0187103937,-14.1210682729,-14.1664681375,-14.1584434947,-14.1035118317,-14.0108720964,-13.8918904039,-13.7594237932,-13.6270431248,-13.5082196013,-13.4155356965,-13.3599722307,-13.3503113141,-13.3926823208,-13.4902667112,-13.6431683037,-13.8484487634,-14.1003233038,-14.3905078566,-14.7087045617,-15.0432058475,-15.3815883811,-15.7114582038,-16.0211999804,-16.3006788538,-16.5418443062,-16.7391917092,-16.8900476607,-16.9946577321,-17.0560681176,-17.0798052655,-17.0733703732,-17.0455793718,-17.005793676,-16.9631013574,-16.9255204327,-16.8993032227,-16.888420966,-16.8942991141,-16.9158548054,-16.9498590082,-16.9916085231,-17.035850806,-17.0778623339,-17.11454535,-17.1453852371,-17.1731072688,-17.2038901979,-17.2470347719,-17.3140442409,-17.4171448615,-17.5673490082,-17.7722326191,-18.0336536563,-18.3456721237,-18.6929402467,-19.0498110413,-19.3803639198,-19.6394690116,-19.7749129567,-19.7304975641,-19.4499115537,-18.8810785102,-17.9806141312,-16.7179928706,-15.0790336095,-13.068365809,-10.7106256048,-8.05024440879,-5.14981659746,-2.08715301372,1.04876953178,4.16267467324,7.15833241698,9.94402887565,12.4378097041,14.5721714197,16.2979108449,17.5868846811,18.4334752103,18.8546048332,18.8881963717,18.5900452315,18.0291602263,17.2817442873,16.4241198798,15.5250450404,14.637996688,13.794096433,12.9963982326,12.216228774,11.3921607124,10.4320071739,9.21796609052,7.61473840296,5.48012721059,2.67733359609,-0.912061962417,-5.37557235635,-10.7588793554,-17.0575442209,-24.2121574594,-32.1074199748,-40.5752920826,-49.4019904926,-58.3382966636,-67.1123933042,-75.4442858015,-83.0607943382,-89.7101117918,-95.1749976867,-99.2838038429,-101.918689702,-103.020575351,-102.590592118,-100.688018891,-97.4249282933,-92.9579960286,-87.478129078,-81.1987214362,-74.3434300771,-67.134366097,-59.7815138778,-52.4740328429,-45.3738807733,-38.6119520155,-32.2866797518,-26.4648388668,-21.1841280665,-16.4570197545,-12.2753453529,-8.61512369926,-5.44122486372,-2.711571452,-0.380694588037,1.59743375298,3.26728717752,4.67032797963,5.84411312292,6.8218587293,7.63236291158,8.30019923199,8.84610817118,9.28752765287,9.63921348683,9.91390587599,10.1229996838,10.2771757428,10.3869500995,10.4630994016,10.516924949,10.5603264587,10.6056704053,10.6654570591,10.7518133847,10.8758619525,11.0470342167,11.2724063736,11.5561365835,11.8990744492,12.2985981343,12.7487117822,13.2404073071,13.7622636487,14.301228277,14.8435050865,15.3754630841,15.8844823624,16.359666402,16.7923699059,17.1765154317,17.5086962193,17.7880835095,18.0161722932,18.1964091623,18.3337499731,18.4341938506,18.5043342606,18.5509585219,18.5807158269,18.5998625927,18.614084671,18.6283898164,18.6470608094,18.6736584253,18.7110623744,18.7615366725,18.8268043872,18.9081168728,19.0063056086,19.1218105976,19.2546868018,19.4045974737,19.5708086148,19.7522005796,19.9473102068,20.1544100908,20.371622357,20.5970550721,20.8289425906,21.0657681284,21.3063479794,21.5498615627,21.7958190257,22.0439674176,22.2941464191,22.5461140652,22.7993701555,23.0530079478,23.305621346,23.5552846685,23.7996070007,24.0358468099,24.2610592882,24.4722425255,24.6664511817,24.8408578985,24.9927611127,25.1195590602,25.218727995,25.2878525194,25.3247537991,25.3277466557,25.2960312248,25.2301931446,25.1327535846,25.0086830689,24.8657769949,24.7147904702,24.5692475732,24.4448746309,24.3586551866,24.3275600365,24.3670609457,24.4895821213,24.7030704131,25.009867098,25.4060386131,25.8812731774,26.4193820193,26.9993686197,27.5969593838,28.1864357411,28.7425782198,29.2425297063,29.6674053479,30.0035147369,30.2431110255,30.3846342619,30.4324662442,30.3962569207,30.2899148468,30.1303748038,29.9362637191,29.7265817878,29.519500666,29.3313573885,29.1758944366,29.063766428,29.0023055177,28.9955141017,29.044237667,29.1464642723,29.2977001666,29.4913817435,29.7192994075,29.9720251731,30.2393489417,30.5107350396,30.7758089061,31.0248741227,31.2494446352,31.442759771,31.6002349288,31.7197929865,31.8020239087,31.8501338667,31.8696686348,31.8680247764,31.8537907137,31.8359832599,31.8232600383,31.8231921212,31.8416730146,31.8825204178,31.9472993561,32.035364841,32.1440948022,32.2692636784,32.4054958653,32.5467370585,32.6866901172,32.8191785131,32.9384211291,33.0392225508,33.1170986193,33.1683647642,33.1902134782,33.1807986141,33.1393310302,33.0661761811,32.9629328872,32.8324662052,32.6788674021,32.5073205497,32.323866844,32.1350718293,31.9476140831,31.7678238357,31.6012050823,31.451975255,31.3226538316,31.2137268652,31.1234094107,31.0475229233,30.9795004249,30.9105286056,30.8298322514,30.7251010777,30.583051076,30.3901017792,30.1331385591,29.8003171341,29.381857999,28.8707732431,28.2634682533,27.560166376,26.7651151667,25.8865471803,24.9363848242,23.9296962561,22.8839267549,21.8179468898,20.7509745196,19.7014409676,18.6858807828,17.7179272604,16.8074909744,15.9601857848,15.1770470587,14.4545620247,13.7850049678,13.1570439794,12.5565648415,11.9676437169,11.3735939955,10.7580126757,10.1057562722,9.40378403337,8.6418165035,7.81277001851,6.9129425951,5.9419438303,4.90238065046,3.79933141809,2.63966164762,1.43125305858,0.182230843559,-1.09972127676,-2.40787472683,-3.7367327171,-5.08203259277,-6.44047345283,-7.80920976274,-9.18519150479,-10.5644626319,-11.9415447452,-13.309026915,-14.6574549383,-15.9755685005,-17.2508804455,-18.4705377198,-19.6223574473,-20.6959015671,-21.6834446412,-22.5807030999,-23.3872273742,-24.1064045292,-24.7450699609,-25.3127746589,-25.8207934873,-26.2809862181,-26.704635014,-27.1013796948,-27.47835681,-27.8396228943,-28.1859097511,-28.5147240568,-28.8207688287,-29.0966337788,-29.3336780196,-29.5230138158,-29.6564948111,-29.7276159036,-29.7322431888,-29.6691090953,-29.540028368,-29.3498140829,-29.105899048,-28.8176958004,-28.4957557035,-28.1508110569,-27.7928000932,-27.4299801009,-27.0682266709,-26.7105970625,-26.3572052284,-26.0054195925,-25.6503577403,-25.2856197189,-24.9041767754,-24.4993162653,-24.0655365277,-23.599288607,-23.099476193,-22.5676517962,-22.0078845934,-21.4263192085,-20.8304880224,-20.2284747348,-19.6280475075,-19.0358824018,-18.4569811888,-17.8943541857,-17.3489939447,-16.8201174519,-16.3056120503,-15.8025914742,-15.3079580686,-14.8188765229,-14.3330904008,-13.8490492619,-13.3658531572,-12.883054859,-12.4003827396,-11.917456379,-11.4335630723,-10.9475483181,-10.4578500851,-9.96267925927,-9.46032185392,-8.94951654138,-8.42984660539,-7.90207981377,-7.36839314085,-6.83243110444,-6.29916546053,-5.77454831664,-5.26497807518,-4.7766252235,-4.31468962648,-3.88267906038,-3.48180663834,-3.11059966177,-2.76479319545,-2.43754975456,-2.12000601635,-1.80210454753,-1.47362996475,-1.12534052205,-0.750071420446,-0.343686350062,0.0942316678131,0.560032042701,1.04603664616,1.54097306744,2.03076645486,2.49962188248,2.93130510555,3.31051564032,3.62424130252,3.86298585348,4.02176959574,4.10081575783,4.10585335037,4.04799051067,3.94314182213,3.81102861236,3.67381118295,3.55445235233,3.47494638045
3,2.3135122855,2.20789455542,2.04569824638,1.83030157681,1.56833783763,1.26951155921,0.946090558006,0.612091470143,0.28221768711,-0.0293525023277,-0.31020002406,-0.550779174112,-0.745273835847,-0.892081924168,-0.993856190196,-1.05708407558,-1.09124855062,-1.10766665321,-1.11814447618,-1.13361085496,-1.16289418486,-1.21178759304,-1.28250965495,-1.37361596726,-1.48035801804,-1.59542773119,-1.70997670248,-1.81476561729,-1.90128696507,-1.96271529911,-1.99457239184,-1.99504403979,-1.96494204248,-1.90735869773,-1.82710259985,-1.73002701486,-1.62236309714,-1.51015151489,-1.39883327506,-1.29302165376,-1.19644044893,-1.11198599592,-1.04185553272,-0.987683562488,-0.950639025607,-0.931455386228,-0.930388138792,-0.947114988873,-0.980609565733,-1.02902807719,-1.08964927173,-1.15890184069,-1.23250108779,-1.3056999928,-1.37364084323,-1.43177489929,-1.47630184242,-1.50457087899,-1.51538389303,-1.50914952521,-1.48785521362,-1.45484959693,-1.41445609931,-1.37146512415,-1.33057237405,-1.29584052064,-1.2702585182,-1.25545743757,-1.25161660864,-1.2575639819,-1.27104573517,-1.28911770541,-1.30859911064,-1.32652856192,-1.34057188374,-1.34934671332,-1.35264518602,-1.35154886702,-1.3484372143,-1.34689275118,-1.35150544934,-1.36757887852,-1.40074384335,-1.45649217619,-1.53965333405,-1.65384799258,-1.80096416013,-1.98071025191,-2.19030338249,-2.42434726192,-2.67494102186,-2.93203841023,-3.18404839563,-3.41863725816,-3.62366359001,-3.78815614613,-3.90323402108,-3.96287133019,-3.96442456984,-3.90886818605,-3.80071875019,-3.64766513241,-3.45995499819,-3.24961123222,-3.02956217513,-2.81276677481,-2.61140287845,-2.43616864883,-2.29572833142,-2.1963179734,-2.14151599211,-2.13217763274,-2.16652978357,-2.24042082963,-2.34771641767,-2.48082392991,-2.63131553232,-2.790603834,-2.95060984863,-3.10435544988,-3.24641605145,-3.37318492452,-3.48292567377,-3.57561848032,-3.65263294459,-3.7162813792,-3.76931880964,-3.81445887153,-3.85396854605,-3.88939056179,-3.9214224298,-3.9499580173,-3.97427402123,-3.99332260361,-4.00607586546,-4.01186033887,-4.01062152304,-4.00306935442,-3.99067385561,-3.97550376342,-3.95992684496,-3.94621555442,-3.93612210747,-3.93049950095,-3.92904641808,-3.93024200406,-3.93151043307,-3.92961709192,-3.92125371226,-3.90372753909,-3.8756394336,-3.83742595814,-3.79165499269,-3.74300124604,-3.69787937043,-3.66376733898,-3.64830082532,-3.65825314298,-3.69853134913,-3.77131715506,-3.87546323628,-4.00622455618,-4.1553644173,-4.31163101746,-4.46155806215,-4.59050849954,-4.68385871942,-4.72821401548,-4.71255357691,-4.62922033733,-4.4746917589,-4.25008705276,-3.96138208397,-3.6193157998,-3.23898354855,-2.83912518338,-2.44113063512,-2.06780322654,-1.74194127284,-1.48482023488,-1.31467799498,-1.24532044267,-1.28496900886,-1.43546285559,-1.6919051619,-2.04280681443,-2.4707352646,-2.95342624323,-3.46526734063,-3.97902149306,-4.46763091566,-4.9059321409,-5.2721225654,-5.54884790255,-5.72382517264,-5.78997163173,-5.74506861146,-5.59104233971,-5.33298433343,-4.97805711021,-4.53443449817,-4.01040982762,-3.41377225678,-2.75150645602,-2.02982091342,-1.25446291883,-0.431240438444,0.433353047874,1.33152323345,2.25367488705,3.18811260101,4.12099860724,5.03659034315,5.91774796425,6.74667430927,7.50582871984,8.17894199749,8.75205246654,9.21448221281,9.5596774273,9.78584639401,9.89634186388,9.8997504497,9.80966987842,9.6441753612,9.42499863367,9.17646634228,8.92426651522,8.69413011041,8.51052579491,8.39546727284,8.36752232047,8.44109213075,8.62600138256,8.92740724678,9.34600306649,9.87846339035,10.5180549822,11.2553266198,12.0787912065,12.9755273493,13.9316519294,14.9326457306,15.963544986,17.0090370143,18.0535136762,19.0811400298,20.0759876745,21.0222654691,21.9046587143,22.7087657928,23.4216021572,24.032127929,24.5317487732,24.9147406669,25.1785569968,25.323989238,25.355167665,25.2794033851,25.1068854114,24.8502555712,24.5240897548,24.144316702,23.7276055369,23.290750864,22.8500796581,22.420897643,22.0169849509,21.6501429627,21.32978828,21.0625873627,20.852127155,20.698622888,20.5986736691,20.5450883665,20.5268166441,20.5290297003,20.533398896,20.5186153214,20.4611781992,20.336455143,20.1199844813,19.7889526439,19.3237434954,18.709428451,17.9370532727,17.004584377,15.9174048115,14.6882935442,13.3368739984,11.8885707585,10.373160108,8.82303548696,7.27133015915,5.75004553163,4.28832560995,2.91099820788,1.63747479976,0.481066765287,-0.551260309689,-1.45870755317,-2.24608341633,-2.92293373261,-3.50244874798,-4.00024391673,-4.43311183709,-4.81783510939,-5.17013546213,-5.50381547582,-5.830128662,-6.15739447737,-6.49085888016,-6.83278840734,-7.18277529293,-7.53822131227,-7.89495786573,-8.24794961102,-8.59202037763,-8.92253554169,-9.2359765769,-9.53035216099,-9.80540586819,-10.0626018407,-10.3048944624,-10.5363126231,-10.761410144,-10.9846483904,-11.2097831108,-11.4393246217,-11.6741297615,-11.9131680923,-12.1534865668,-12.3903785024,-12.6177451071,-12.8286208612,-13.0158175678,-13.1726265596,-13.2935064529,-13.3746781943,-13.4145532872,-13.4139370726,-13.3759762098,-13.3058543201,-13.2102759406,-13.0968095705,-12.9731800737,-12.8466058591,-12.7232664378,-12.6079627072,-12.5039992737,-12.4132808156,-12.3365794862,-12.2739041286,-12.224889629,-12.189128526,-12.1663859644,-12.1566687369,-12.1601529197,-12.177005885,-12.2071622162,-12.2501260298,-12.3048726187,-12.3699095021,-12.4435315088,-12.524268838,-12.6114855643,-12.7060447062,-12.8109212609,-12.9316228584,-13.0762746046,-13.2552445072,-13.4802299307,-13.7627909473,-14.1123961597,-14.53413047,-15.0262909191,-15.5781549119,-16.1682350473,-16.763328981,-17.318627409,-17.7790591309,-18.0819352845,-18.1608162399,-17.9503790659,-17.3919279767,-16.4390822869,-15.0631120118,-13.2573817087,-11.0404127902,-8.45717940999,-5.57840171755,-2.49777638665,0.67273079125,3.80923009344,6.78344094646,9.47085141865,11.7588773119,13.5543785936,14.7899249165,15.4282818401,15.4647092783,14.9268162233,13.8718919936,12.3818238079,10.5559019046,8.50199451105,6.32673307813,4.12547034472,1.97284694109,-0.0851857803437,-2.03709769845,-3.90861173712,-5.76218785426,-7.6929812528,-9.82140923823,-12.2827880496,-15.2148085822,-18.7438723986,-22.9714736168,-27.9618628612,-33.7321539134,-40.2458352908,-47.4103473136,-55.0790140052,-63.0572216975,-71.1123586047,-78.9867131431,-86.4123031537,-93.1264880916,-98.8872016728,-103.486722071,-106.763052497,-108.608196491,-108.972860161,-107.867380911,-105.358954229,-101.565492295,-96.6466848661,-90.7930267631,-84.2137095769,-77.1243326552,-69.7353605224,-62.2421401593,-54.8171023012,-47.6045268272,-40.7179822567,-34.2402860537,-28.2256072157,-22.7031703424,-17.6819357127,-13.1556259081,-9.10753819181,-5.51470641897,-2.35113434753,0.410010574821,2.79520064251,4.83018566492,6.54022605695,7.95065406139,9.08751144796,9.97806098525,10.6510377707,11.1365810396,11.465855106,11.6704206754,11.7814498684,11.8288888116,11.8406631454,11.8419996935,11.854908721,11.8978423619,11.9855211491,12.1289051642,12.3352797982,12.6084269675,12.9488579699,13.3540908409,13.818960637,14.3359544175,14.8955641592,15.4866517056,16.0968213858,16.7127985713,17.3208158483,17.9070119634,18.4578512776,18.9605717448,19.4036658759,19.7773907978,20.0742907028,20.2896996649,20.4221783968,20.4738290933,20.4504314278,20.3613516316,20.2191947404,20.0391950106,19.8383675425,19.6344715197,19.4448590422,19.2853010814,19.1688919195,19.105133926,19.0992942763,19.152103949,19.2598384688,19.4147824973,19.6060406465,19.8206194939,20.044675476,20.2648043644,20.4692432728,20.6488665466,20.7978812508,20.9141630976,20.9992147484,21.0577700196,21.0971044251,21.1261406893,21.1544547453,21.1912921704,21.2446972434,21.3208382334,21.4235855727,21.554367408,21.7122934316,21.8945069755,22.0967011184,22.313720185,22.5401650736,22.7709289568,23.0016071417,23.2287482923,23.4499400438,23.6637460691,23.8695300311,24.0672121967,24.2570063983,24.4391797815,24.6138673341,24.7809596413,24.9400678295,25.090556714,25.2316281256,25.36243264,25.4821892396,25.5902971939,25.6864304862,25.7706104618,25.843255702,25.9052090229,25.9577405235,26.0025242001,26.0415853913,26.0772181898,26.11187573,26.148040824,26.1880883831,26.2341532658,26.2880170069,26.3510243282,26.4240361712,26.5074212716,26.601083998,26.7045229295,26.8169127101,26.9372008331,27.0642106137,27.1967413495,27.3336568401,27.4739547993,27.6168127983,27.7616111528,27.9079388992,28.0555944243,28.2045955122,28.3552124267,28.5080309274,28.6640405872,28.8247303447,28.9921619821,29.1689871229,29.358376829,29.5638449236,29.7889641983,30.0369943654,30.3104574886,30.6107073916,30.9375428821,31.2889109132,31.6607363296,32.0469013419,32.4393824733,32.8285380032,33.2035273126,33.5528363944,33.8648808413,34.1286569754,34.3344108003,34.4742910695,34.5429466516,34.5380214155,34.4604954576,34.3148231781,34.1088287426,33.853338129,33.5615527048,33.248199018,32.9285189533,32.6171887099,32.3272697137,32.069296586,31.8505956161,31.6749026228,31.5423142269,31.4495658756,31.3905896673,31.3572718605,31.3403094782,31.3300606451,31.3172941134,31.2937669505,31.2525907227,31.188380042,31.0972074207,30.9764103327,30.8243073847,30.6398802983,30.4224693434,30.1715160369,29.8863727243,29.5661873676,29.2098647695,28.8161018747,28.3834927244,27.9106960385,27.396654181,26.8408466766,26.2435555972,25.606115217,24.931115074,24.2225243657,23.4857069326,22.727301,21.954947767,21.1768687136,20.4013122147,19.6359124896,18.8870232672,18.1591000901,17.4542059242,16.7717041531,16.1081827916,15.4576273392,14.8118317074,14.1610116911,13.4945667589,12.8019246617,12.0733987909,11.3009886977,10.479058229,9.60483287553,8.67866880394,7.70406163176,6.68738351916,5.63736134576,4.56433414844,3.47935165005,2.39319476062,1.31541088385,0.253459603422,-0.787943661934,-1.80721753072,-2.80599827113,-3.78891220892,-4.76306801787,-5.73733191073,-6.72147187084,-7.72526798927,-8.75768334313,-9.82617482243,-10.9361991722,-12.0909404804,-13.2912555176,-14.5358064714,-15.8213301054,-17.1429808705,-18.4946843314,-19.86944609,-21.2595783555,-22.6568285342,-24.0524181647,-25.4370222246,-26.8007343133,-28.1330693625,-29.4230511956,-30.6594186709,-31.8309643176,-32.9269968927,-33.9378973195,-34.8557184741,-35.674765307,-36.3920847358,-37.007796279,-37.5252054304,-37.9506619246,-38.2931524538,-38.5636487971,-38.7742635155,-38.9372918805,-39.0642365338,-39.1649174045,-39.2467617544,-39.3143480254,-39.3692452114,-39.4101520891,-39.4333041463,-39.4330860277,-39.4027673354,-39.3352711898,-39.2238880362,-39.0628606837,-38.8477885447,-38.5758266693,-38.2456847467,-37.8574584915,-37.4123465415,-36.9123170774,-36.3597887392,-35.7573812267,-35.1077751567,-34.4137018103,-33.6780642923,-32.9041739739,-32.0960704316,-31.2588797641,-30.3991561742,-29.5251468064,-28.6469216578,-27.7763196077,-26.9266778298,-26.1123337237,-25.3479138605,-24.6474504157,-24.0233891129,-23.4855711648,-23.0402829354,-22.689469447,-22.430200514,-22.2544613328,-22.1493143351,-22.0974489201,-22.0781036516,-22.0683138938,-22.0444072294,-21.9836397056,-21.8658403557,-21.6749145698,-21.4000548632,-21.0365250073,-20.5859214489,-20.0558710607,-19.4591890693,-18.812585453,-18.1350619721,-17.4461771658,-16.7643684291,-16.1055077811,-15.4818335941,-14.9013496751,-14.3677230414,-13.8806508996,-13.4366136501,-13.0298904627,-12.6536911939,-12.3012550587,-11.9667822398,-11.6460967542,-11.3369824069,-11.0391820231,-10.7540965031,-10.4842581587,-10.2326770078,-10.0021659422,-9.79474078018,-9.61116747486,-9.45069699646,-9.3109952132,-9.18824643771,-9.07738979645,-8.97243978296,-8.86684600439,-8.75385904243,-8.62688455743,-8.47982121559,-8.30738586082,-8.10542963114,-7.87124170487,-7.60382542831,-7.30411845767
3,2.94918127161,2.99239366827,3.02512557376,3.0474884144,3.0601006194,3.06428972621,3.06227134998,3.05725767974,3.0534567489,3.05594150631,3.07039003206,3.10271968408,3.15865400293,3.24326914552,3.3605658853,3.5131052287,3.70173335626,3.92540842495,4.18113094577,4.46397290574,4.76719865381,5.0824712503,5.40013913765,5.70959764144,5.99971699118,6.25932321936,6.47771105563,6.64516008681,6.75341911402,6.79612121881,6.7690951968,6.67054779623,6.50110408304,6.26370771973,5.96339621384,5.60697600391,5.20262752893,4.75947143594,4.28712493845,3.7952733865,3.29327758919,2.78983328413,2.29269570748,1.80847900188,1.34253619366,0.898919889711,0.480416904699,0.0886430746925,-0.275820723662,-0.613272590441,-0.924733646187,-1.21180739461,-1.47656233376,-1.72143725506,-1.94916087526,-2.16267190259,-2.36502349912,-2.55925809828,-2.74824472599,-2.93448047134,-3.11986877408,-3.30549747903,-3.49144706668,-3.6766626186,-3.8589209773,-4.0349167131,-4.2004771957,-4.35089987233,-4.48138671347,-4.58753516277,-4.66583458989,-4.71411346785,-4.73188516593,-4.72054852513,-4.68341231238,-4.62552938843,-4.55334603244,-4.47419274012,-4.39566222965,-4.32493489578,-4.26811868471,-4.22966829186,-4.21193871735,-4.21491284042,-4.2361244869,-4.27077997686,-4.31206439223,-4.35160520759,-4.38005620397,-4.38775881363,-4.365435789,-4.30487261282,-4.19954456449,-4.04515119061,-3.84002478686,-3.58538545539,-3.2854227158,-2.9471929022,-2.58033272513,-2.19660189208,-1.80928050954,-1.43245879361,-1.08026589881,-0.7660898416,-0.501840239582,-0.297299579253,-0.159598049181,-0.0928339371306,-0.097849044564,-0.172159107898,-0.310034409298,-0.502725595107,-0.738832341681,-1.00481463605,-1.28564454945,-1.56558817513,-1.82909281954,-2.06173590341,-2.25117333171,-2.38801077013,-2.4665151115,-2.48508781413,-2.44643729497,-2.35741277769,-2.22849400695,-2.07296626534,-1.9058440662,-1.7426355915,-1.59805951838,-1.48483340384,-1.41264712977,-1.38741706133,-1.41088923857,-1.48062655964,-1.59037896911,-1.73080024021,-1.89044276642,-2.05693532727,-2.21823038066,-2.36379913607,-2.4856558953,-2.57910810236,-2.64315404032,-2.6804839676,-2.69707990471,-2.7014508451,-2.70357976834,-2.71369209681,-2.7409781857,-2.7924120288,-2.87180275693,-2.9791942888,-3.1106928924,-3.25875536262,-3.41291662637,-3.56088103747,-3.68985374677,-3.78795472753,-3.84554430318,-3.85629852747,-3.81790481497,-3.73229803434,-3.60541684237,-3.44651996496,-3.26715380755,-3.07989996745,-2.89705066784,-2.72936134604,-2.58501432611,-2.4688990018,-2.38227646648,-2.32285445506,-2.2852558966,-2.26182498191,-2.24368179927,-2.22191325209,-2.18877610326,-2.1387879786,-2.06959300405,-1.98250887959,-1.88269003791,-1.77887539619,-1.68272691155,-1.6078039292,-1.56825488221,-1.57733861271,-1.64590889614,-1.78100493565,-1.98468624406,-2.25323245282,-2.57679860111,-2.93957723947,-3.32047426902,-3.69426023743,-4.03311680872,-4.30846258099,-4.4929160355,-4.56223845212,-4.49709790181,-4.28450780309,-3.91881946635,-3.40218532228,-2.74445444799,-1.96251013798,-1.07910633837,-0.121302123838,0.881372164065,1.89886015431,2.90246983518,3.86654969151,4.76981424403,5.5962198244,6.33533849273,6.98222937706,7.53685664396,8.00314690163,8.38781219253,8.69908467642,8.94551326254,9.13495970633,9.2739027189,9.36711636124,9.41773868216,9.42769517164,9.39839644055,9.331596786,9.23028391992,9.09947115491,8.94677978152,8.78272711158,8.62066986769,8.47638887579,8.3673359067,8.31159460073,8.32663322388,8.42794663703,8.62769752691,8.93347187784,9.34726039677,9.86476632028,10.475121497,11.1610677356,11.8996297063,12.6632695652,13.4214728826,14.1426727807,14.7963786112,15.3553426194,15.7975787142,16.1080464577,16.2798329261,16.3147042024,16.2229529858,16.0225333727,15.7375419248,15.3961693408,15.0283028791,14.662999614,14.3260689368,14.0379959583,13.8124054742,13.6552123264,13.564534609,13.5313691321,13.54095222,13.57466098,13.6122571046,13.634241902,13.6240805557,13.5700663524,13.4666302413,13.3149542184,13.1228142274,12.9036545108,12.6749746439,12.4561854284,12.26615197,12.1206836386,12.0302453578,11.9981500306,12.0194484184,12.0806640809,12.1604336181,12.2310156445,12.2605365858,12.2157587342,12.0650959854,11.7815729431,11.3454278282,10.7460986801,9.98340072029,9.06779140516,8.01971689091,6.86812671223,5.6483209177,4.39934723303,3.16119109297,1.97199963908,0.865557133812,-0.13080922633,-0.997760620537,-1.72483206544,-2.31063862686,-2.76241712355,-3.09496348023,-3.32906644784,-3.48957134859,-3.60323048285,-3.69650860372,-3.79351196684,-3.9141976956,-4.07299673524,-4.27794962943,-4.53041216767,-4.82534100229,-5.15212126092,-5.4958525319,-5.83897002703,-6.16304813817,-6.45061771909,-6.68682884916,-6.86080827372,-6.96659358525,-7.00357074401,-6.97639240273,-6.89440579641,-6.77066519358,-6.62064059898,-6.46075835371,-6.30691880385,-6.17313123597,-6.07038826578,-6.00587350924,-5.98256123238,-5.99922871261,-6.05086493566,-6.12942591042,-6.22485926263,-6.3262999889,-6.42332589188,-6.5071556746,-6.5716754878,-6.61419164299,-6.63582877934,-6.64152365869,-6.63960312804,-6.64097711173,-6.6580188336,-6.70323934389,-6.78788723355,-6.92061456623,-7.1063460704,-7.34547146742,-7.63345219286,-7.96089599433,-8.31410896744,-8.67608834571,-9.02787525115,-9.35014935405,-9.62492154442,-9.83717000722,-9.97627112953,-10.0370978624,-10.0206901601,-9.93443959611,-9.79176853732,-9.6113199565,-9.41570507748,-9.2298817377,-9.07925655519,-8.98761881701,-8.97502356543,-9.05574597776,-9.23642980749,-9.51455106221,-9.87731577067,-10.3011075551,-10.7515938964,-11.1845839848,-11.5476997441,-11.7828710392,-11.829596638,-11.6288297507,-11.1272609978,-10.2816955324,-9.06316842252,-7.46042452949,-5.48241224273,-3.15950437674,-0.543257921166,2.29535409911,5.26917455832,8.27936777641,11.2208992152,13.9886064828,16.4834272962,18.6183331273,20.3235340432,21.5505664734,22.2749450049,22.4971456714,22.2417873083,21.5549873132,20.4999874536,19.151272016,17.5875296139,15.8839329397,14.1043161248,12.2939036223,10.4732736921,8.63421104102,6.73800793598,4.71660833262,2.476761236,-0.0929260627058,-3.11244086317,-6.69901424163,-10.9548921016,-15.9553063093,-21.7377684651,-28.2937323074,-35.5634770804,-43.434774286,-51.7455496344,-60.2903850641,-68.8303673296,-77.1055169641,-84.8488478298,-91.8010209302,-97.7245613998,-102.41669038,-105.719965509,-107.530106709,-107.800592434,-106.543833582,-103.828958173,-99.7764600764,-94.5501681542,-88.3471643936,-81.3864057944,-73.8968710537,-66.1060502909,-58.2295228127,-50.4622319694,-42.9718834429,-35.8946852103,-29.3334375229,-23.3577921132,-18.0063501081,-13.2901695251,-9.19720905719,-5.69724059742,-2.74680865601,-0.293888074315,1.71802008394,3.34652129807,4.64776550114,5.674684561,6.47595395705,7.09554949186,7.57273585371,7.94231234101,8.23495238542,8.47750489366,8.693171404,8.90152639243,9.11840076946,9.35569298496,9.62120182627,9.91858564713,10.2475425899,10.6042763151,10.9822657415,11.3733022399,11.7687029706,12.1605649443,12.5429000227,12.9124922743,13.2693472082,13.6166538559,13.9602475741,14.3076330315,14.666691768,15.0442470649,15.4446834978,15.868815738,16.3131709583,16.7697955514,17.2266275128,17.6684012709,18.077983304,18.4379843379,18.7324636661,18.9485355613,19.0777056982,19.1168029835,19.0684230628,18.9408565123,18.7475296451,18.5060324061,18.2368414771,17.9618652987,17.7029412437,17.4804054833,17.3118364341,17.2110471996,17.187375359,17.2452931537,17.3843395468,17.5993582807,17.8810123599,18.2165341756,18.5906606604,18.9866939284,19.3876203055,19.7772158114,20.1410655496,20.4674291477,20.7478944959,20.9777767784,21.1562376926,21.2861191064,21.3735046984,21.4270414112,21.4570693638,21.4746239686,21.4903868427,21.5136715472,21.5515345036,21.6080985388,21.6841643885,21.777162976,21.8814691266,21.9890587543,22.0904516788,22.175846989,22.2363324674,22.2650375761,22.258102533,22.2153536932,22.1406055659,22.0415486401,21.9292252714,21.8171385031,21.720076553,21.6527654911,21.6284821442,21.6577669309,21.7473707409,21.8995501134,22.1117911717,22.3769976466,22.6841268455,23.0192063501,23.3666209174,23.7105299744,24.0362654941,24.3315691216,24.5875542055,24.799317986,24.9661747049,25.0915244019,25.1824081157,25.2488235139,25.3028837516,25.3578979568,25.4274385758,25.5244449239,25.6603991277,25.8446032298,26.0835844292,26.3806565941,26.7356665671,27.144950109,27.6015129225,28.0954373691,28.6144971874,29.1449434971,29.6724083118,30.1828588349,30.6635285226,31.1037503054,31.4956239043,31.8344623718,32.1189812765,32.3512150348,32.536166513,32.6812165702,32.7953390541,32.88818395,32.9691067781,33.0462344963,33.1256642359,33.2108875728,33.30251672,33.3983589094,33.4938434539,33.5827584281,33.6582089586,33.7136752705,33.7440320926,33.7463945035,33.7206778584,33.6697972236,33.5994790809,33.5177085457,33.4338824507,33.3577762013,33.2984550097,33.2632645705,33.2570218593,33.2814961038,33.3352283623,33.4136923547,33.5097561988,33.6143703996,33.7173856846,33.8083967427,33.8775144029,33.9159876967,33.9166255538,33.8740011209,33.7844544504,33.6459361913,33.457751744,33.2202699605,32.9346531338,32.6026481116,32.2264559001,31.8086739099,31.3522857458,30.8606619779,30.3375340661,29.7869129548,29.2129416239,28.6196923878,28.0109390825,27.3899460699,26.7593168889,26.1209351541,25.4760117834,24.8252306079,24.1689639993,23.5075155848,22.8413411783,22.171202799,21.4982233303,20.8238285017,20.1495845101,19.4769592485,18.807048912,18.1403174261,17.4763932098,16.8139569975,16.1507375127,15.4836113795,14.8087835527,14.1220089999,13.4188091895,12.694640542,11.9449866786,11.1653696122,10.3513016365,9.49822239986,8.60147762597,7.6563930808,6.65847961678,5.60377615672,4.48930359088,3.31357112123,2.07705453617,0.782558236256,-0.564618378986,-1.95676538914,-3.38411725896,-4.83545671682,-6.29890727143,-7.762824545,-9.2166815681,-10.6518441916,-12.0621480736,-13.4442145822,-14.7974752793,-16.1239095464,-17.4275335772,-18.7137073633,-19.9883454434,-21.2571240246,-22.5247704731,-23.7945024668,-25.0676569765,-26.3435189349,-27.6193314692,-28.8904484763,-30.1505789423,-31.392071596,-32.6061972876,-33.7834025701,-34.9135280329,-35.9860049084,-36.9900587153,-37.9149548439,-38.7503152123,-39.4865175094,-40.1151627104,-40.6295694816,-41.0252344729,-41.3001925695,-41.4552229543,-41.4938708462,-41.4222827278,-41.2488772793,-40.9838913105,-40.6388492886,-40.2260077465,-39.757823145,-39.2464845507,-38.7035415657,-38.1396444409,-37.5643987836,-36.9863235822,-36.4128901236,-35.8506121431,-35.3051549762,-34.781433702,-34.2836767316,-33.8154408373,-33.3795746247,-32.9781379595,-32.6122928803,-32.2821855208,-31.9868380357,-31.7240654445,-31.4904265917,-31.2812129958,-31.090475453,-30.9110866028,-30.7348387197,-30.5525798614,-30.3543972707,-30.1298625837,-29.8683562845,-29.5594866919,-29.1936102918,-28.7624454828,-28.2597521498,-27.6820277463,-27.0291508845,-26.304890599,-25.517197642,-24.6782056226,-23.8038941368,-22.9134005026,-22.0280067305,-21.1698682029,-20.3605840545,-19.619731018,-18.9634891698,-18.4034792052,-17.9459092166,-17.5910988086,-17.3334143739,-17.1616154271,-17.0595811338,-17.0073607158,-16.982472223,-16.9613609555,-16.9209207683,-16.8399781062,-16.7006402268,-16.4894164349,-16.1980348901,-15.8238977151,-15.3701428638,-14.8453105475,-14.2626421385,-13.6390672174,-12.9939570409,-12.3477383608,-11.7204694604,-11.1304805552,-10.5931738585,-10.1200654359,-9.71813244496,-9.3895067803,-9.13153112687,-8.93716769833,-8.7957249915,-8.69384495356,-8.61667329195,-8.54912081429,-8.47711537441,-8.38874358051,-8.27518951168,-8.13139401019,-7.95638146097,-7.75322919504,-7.52868483942,-7.29246588822,-7.05630071757
3,5.0935182266,5.05617111323,4.98498902139,4.88220458346,4.7497396993,4.5893610299,4.40296838972,4.1929752853,3.96272258228,3.71685308112,3.46157125655,3.20472135909,2.95563818638,2.72475511186,2.52298879277,2.36095401425,2.2480899979,2.1917966766,2.19668308959,2.26401964636,2.39146323621,2.57309237257,2.79975311619,3.0596803066,3.33932755698,3.62431774321,3.90041610227,4.15443139598,4.37496577454,4.55295814151,4.68199488269,4.75839106744,4.78107013471,4.75128721939,4.67224913595,4.54868312922,4.38639883665,4.19187620133,3.97189914888,3.73324319854,3.48241669016,3.22545092404,2.96773405245,2.71388579442,2.46767314881,2.23196958199,2.0087606808,1.79919784445,1.60369882708,1.42209079809,1.25378877012,1.09799970579,0.953939732992,0.821048290831,0.69917916007,0.588745396721,0.490794492609,0.406992554915,0.339502308269,0.290749156564,0.263081836107,0.258348372227,0.277422729679,0.319730921487,0.382835229442,0.46213919074,0.550771965962,0.639697569831,0.718073059262,0.77385282494,0.794607136912,0.768495318808,0.685310211421,0.537493843304,0.321017617016,0.0360265598535,-0.312832719258,-0.716448433409,-1.16165224204,-1.6319658277,-2.10861354697,-2.57170188918,-3.0014532474,-3.37938379869,-3.68933163253,-3.91826783122,-4.05685480503,-4.09974736357,-4.0456580325,-3.89722576961,-3.66073515924,-3.34573182794,-2.96457096878,-2.53192203595,-2.06423710698,-1.57917696371,-1.09498152144,-0.629772703783,-0.200789047703,0.176429445257,0.488864439854,0.726786899668,0.884391345117,0.960216295402,0.957281874086,0.88290015694,0.748147934773,0.567029565314,0.355393532953,0.129695166709,-0.0942839422542,-0.302644058912,-0.484395251592,-0.632217181694,-0.742890690746,-0.817373085983,-0.86052127794,-0.880496866671,-0.887913031696,-0.89480296131,-0.913501879452,-0.955538095298,-1.03062238513,-1.14581043321,-1.30489277246,-1.50804447914,-1.75174622398,-2.0289710033,-2.32961695577,-2.64115510282,-2.94945077068,-3.23970870693,-3.49748486166,-3.70970297278,-3.8656118961,-3.95762026941,-3.98194860097,-3.93904527923,-3.83372273337,-3.67498383823,-3.47552740492,-3.25094528845,-3.01865107328,-2.79660882071,-2.60195627579,-2.44963626429,-2.35115927753,-2.31361693023,-2.33904891483,-2.42423583887,-2.56094956907,-2.73664617466,-2.93554048104,-3.13996194539,-3.33186407201,-3.49434677127,-3.61305345285,-3.67732069157,-3.68098512872,-3.62278651248,-3.50634417141,-3.33972368569,-3.13464801187,-2.90543955278,-2.66780316424,-2.43757164707,-2.22953284236,-2.05644099024,-1.92828677472,-1.85186462431,-1.83063781522,-1.86486771713,-1.95194859013,-2.08687715494,-2.26278714287,-2.47149069068,-2.70398645998,-2.95091387345,-3.20294945476,-3.4511516856,-3.68726352767,-3.90397737463,-4.09515832396,-4.25601228274,-4.3831796258,-4.47473571809,-4.53008730047,-4.54976713165,-4.53514552818,-4.48809300725,-4.41063952207,-4.30467978189,-4.17176913692,-4.01304052058,-3.82925192658,-3.6209496096,-3.38870972924,-3.13340580088,-2.8564448824,-2.55992281474,-2.24666585677,-1.92014846751,-1.5842998892,-1.24323102663,-0.900924473325,-0.560932763878,-0.226123567682,0.101501823953,0.42090480795,0.732021366619,1.03569900934,1.33357240029,1.62789147615,1.9213125796,2.21665737221,2.51663805542,2.82354376939,3.13888507444,3.46300298828,3.79466565924,4.13069633731,4.46569593869,4.79193665117,5.09950468106,5.37675678765,5.61112542172,5.79026298329,5.90346218238,5.94323448759,5.90688099294,5.79785814495,5.62673154924,5.41152900998,5.17735030962,4.95516339171,4.77980767926,4.68732443796,4.71182812412,4.88220821689,5.21899706842,5.73174855092,6.41724182865,7.25875587927,8.22655919177,9.27963548398,10.3685342585,11.4391106538,12.4368179149,13.3111502684,14.0198113812,14.5322056209,14.831912579,14.9179023801,14.8043700819,14.5192001606,14.1012041505,13.5963936975,13.0536463307,12.5201825053,12.0372928532,11.6367307573,11.338118801,11.1476146902,11.0579535302,11.0498425868,11.0945471491,11.1573869772,11.2017749512,11.193381725,11.1040059071,10.914766626,10.6183081172,10.2198054568,9.73667706223,9.19703299994,8.63700813366,8.0972353276,7.61879665134,7.23904202605,6.98767988569,6.88352124113,6.93219846856,7.12508813315,7.43955151703,7.84047842436,8.28299230094,8.71606115159,9.086671347,9.34416955358,9.44436711553,9.35303219154,9.04846417291,8.52294447899,7.78297619649,6.84834818697,5.7501725625,4.52813477596,3.2272537219,1.89447114001,0.575376597847,-0.688667957085,-1.86280349049,-2.92022393755,-3.84295485257,-4.62188918783,-5.25617287573,-5.75208129467,-6.12155673861,-6.38058519771,-6.54757899261,-6.64190311912,-6.68264242004,-6.68766029894,-6.6729547328,-6.6522803701,-6.63698130191,-6.63596996253,-6.6557930098,-6.70074161661,-6.77298584651,-6.87273415944,-6.99843367143,-7.14703086595,-7.3143055162,-7.49527515803,-7.68464812885,-7.87728529,-8.06861892583,-8.25497535936,-8.4337569924,-8.60345902804,-8.76352295994,-8.91405769256,-9.05548333651,-9.18816638095,-9.31211473648,-9.42678726963,-9.53104824312,-9.62326779331,-9.70154120379,-9.76397796655,-9.80900077834,-9.83559658274,-9.84347551052,-9.83311559343,-9.80569645235,-9.76294828367,-9.70695816973,-9.63998008121,-9.56428650913,-9.48208055595,-9.39546308228,-9.30642765616,-9.21684358127,-9.12838838625,-9.0424060703,-8.95969254604,-8.8802389636,-8.80299004641,-8.7256921125,-8.64490953422,-8.5562762197,-8.45501965352,-8.33675127345,-8.19846382775,-8.03962198728,-7.86318660567,-7.67638528716,-7.49104012088,-7.32329188751,-7.19261858451,-7.12012986994,-7.12621862769,-7.22775322596,-7.43508407631,-7.74920125126,-8.1594047865,-8.64182958936,-9.15910253925,-9.66130670398,-10.0882983275,-10.3732816659,-10.4474113286,-10.2450766494,-9.70943954292,-8.79775379593,-7.48599306706,-5.77235660633,-3.67930206298,-1.25386685307,1.4338261815,4.2938381831,7.22127493405,10.1024254963,12.8217603471,15.2692973237,17.3478068849,18.9793285542,20.1105058885,20.7163143649,20.8018511352,20.4019733692,19.5787080064,18.416504477,17.0155567192,15.4835740384,13.9265230925,12.4389848155,11.0948579496,9.93918206766,8.98183609021,8.19378543059,7.5063996597,6.81414743797,5.98070851028,4.84824352502,3.24925809109,1.02022003033,-1.98412740272,-5.87693709036,-10.7271040173,-16.5498623852,-23.3009867191,-30.8751417981,-39.1085722326,-47.7859641436,-56.6509860102,-65.4197506177,-73.7962502617,-81.4887069928,-88.225745105,-93.7713267705,-97.9374855162,-100.594039262,-101.674659895,-101.178915374,-99.1701765428,-95.7695820097,-91.1465604567,-85.5066923449,-79.0779187052,-72.0962408854,-64.7920774452,-57.3783435247,-50.0411029203,-42.9333403778,-36.1720512703,-29.8384945896,-23.9811483763,-18.6206806033,-13.7561248887,-9.37143459412,-5.44167096006,-1.93823923923,1.16720783055,3.90035920437,6.28328101966,8.33468348436,10.0710882376,11.5085074805,12.6642441654,13.5584676254,14.2152987788,14.6632394887,14.9348880644,15.0659849571,15.0939191524,15.0558886863,14.9869428072,14.9181364769,14.8750017932,14.8764909274,14.9344795931,15.0538487523,15.2330951683,15.4653671423,15.7397864072,16.0429033349,16.3601394287,16.6770946884,16.980632268,17.2596924912,17.5058262971,17.7134689095,17.8799941183,18.005596668,18.0930462251,18.1473449838,18.1753073674,18.1850698188,18.1855353772,18.1857633169,18.1943274777,18.2186841593,18.264605761,18.3357435883,18.4333781716,18.5563975071,18.7015163347,18.863718866,19.036879108,19.2144912692,19.3904299592,19.5596567724,19.7187960353,19.8665167769,20.0036785137,20.1332229707,20.2598198933,20.3893001062,20.527930729,20.6816042978,20.8550243504,21.0509740248,21.2697507323,21.5088384238,21.7628690649,22.0238973115,22.2819791573,22.5260103308,22.7447482969,22.9279175065,23.0672843277,23.1575876419,23.1972238383,23.1886098999,23.1381824681,23.0560292652,22.9551862947,22.8506649123,22.758294425,22.6934779248,22.669962761,22.6987239196,22.7870496897,22.9379048112,23.1496269579,23.4159882679,23.7266255899,24.0678127574,24.4235175383,24.7766573858,25.1104447269,25.4096977845,25.6619902581,25.8585248837,25.9946422223,26.0699147392,26.0878228627,26.0550581663,25.9805424772,25.8742844448,25.7462124161,25.605122346,25.4578626503,25.3088472857,25.1599479946,25.0107711081,24.8592781027,24.7026667468,24.5383954397,24.3652111763,24.1840348486,23.9985687109,23.8155206615,23.6443868227,23.4967927853,23.3854567699,23.322895132,23.320032638,23.3848992772,23.5215881217,23.7296156838,24.0037728938,24.3344899923,24.7086721997,25.1109042151,25.5248779947,25.93487504,26.3271337226,26.6909527794,27.0194199988,27.309704294,27.5629028516,27.7834858666,27.9784235621,28.1561096345,28.3252098699,28.4935641409,28.667255541,28.8499346221,29.0424532316,29.2428254771,29.4464971533,29.6468734672,29.8360314859,30.0055308028,30.1472343153,30.2540596538,30.3205980531,30.3435580251,30.3220130711,30.2574535191,30.1536604425,30.0164327364,29.8532054661,29.6725983281,29.4839286003,29.2967153867,29.1201936921,28.9628500682,28.8319878716,28.7333303412,28.6706734966,28.6456068761,28.6573258947,28.7025619947,28.7756529529,28.8687644418,28.9722562977,29.0751663559,29.1657661229,29.2321310523,29.2626674213,29.2465487352,29.1740352424,29.0366762248,28.8274203578,28.540678275,28.1723882269,27.7201278956,27.1832944278,26.5633457873,25.8640671034,25.0918033511,24.2555899819,23.3671183031,22.4404910919,21.4917516778,20.5382004979,19.5975411617,18.6869190692,17.8219272745,17.015656132,16.2778566216,15.6142748107,15.0262000095,14.5102548109,14.0584430681,13.6584620601,13.2942762966,12.9469404895,12.5956459736,12.2189470006,11.7961014956,11.3084381952,10.7406437284,10.0818548178,9.32644664537,8.47443015766,7.53140692429,6.50807534937,5.41932980777,4.28303744471,3.11860960474,1.94550166583,0.781774578663,-0.357165082806,-1.45955796597,-2.51796275795,-3.52958287466,-4.49625443451,-5.42412142885,-6.32303800643,-7.20574696464,-8.08688981752,-8.98190881593,-9.9059057912,-10.8725262996,-11.8929391454,-12.9749798468,-14.1225211692,-15.3351238126,-16.6080050206,-17.932341863,-19.295899574,-20.6839451722,-22.0803755842,-23.4689616187,-24.8345887189,-26.1643665185,-27.4484852636,-28.6807201285,-29.8585237121,-30.9826981109,-32.0566929877,-33.0856255397,-34.0751540576,-35.0303536641,-35.9547389441,-36.8495545927,-37.713415729,-38.5423303717,-39.3300854732,-40.0689325986,-40.7504761317,-41.3666493966,-41.9106625273,-42.3778174616,-42.7661056316,-43.0765285155,-43.3131075893,-43.4825775577,-43.5937851781,-43.6568451439,-43.6821325509,-43.6792150785,-43.6558430253,-43.6171178424,-43.5649472674,-43.4978672937,-43.4112702959,-43.2980292647,-43.1494563899,-42.9564869751,-42.7109437187,-42.4067178614,-42.0407069334,-41.6133751588,-41.1288495601,-40.5945263965,-40.0202300096,-39.4170294279,-38.7958676446,-38.1661869191,-37.5347366493,-36.9047280548,-36.2754555415,-35.642444761,-34.9981203834,-34.3329210674,-33.6367326454,-32.9004694183,-32.1176124675,-31.2855157393,-30.4063152507,-29.4873210641,-28.5408304093,-27.5833668047,-26.6344168545,-25.7147958399,-24.8448179234,-24.0424708299,-23.3217949433,-22.6916429039,-22.1549515636,-21.7085998441,-21.3438614466,-21.0473982281,-20.8026850343,-20.5917147486,-20.3968063972,-20.2023310606,-19.9961806816,-19.77083304,-19.5239098482,-19.2581797731,-18.9810179892,-18.7033913581,-18.4384863906,-18.2001301865,-18.0011694881,-17.8519696189,-17.7591755657,-17.7248453438,-17.7460253694,-17.8147934061,-17.9187511604,-18.0419095295,-18.165877755,-18.2712455168,-18.3390359731,-18.352108677,-18.2964035216,-18.1619379664,-17.9434960495,-17.6409749707,-17.2593798623,-16.8084778114,-16.3021382657,-15.7574002305,-15.1933192896,-14.6296609209,-14.0855208604,-13.5779668821,-13.1208063508,-12.7235864555,-12.3909253608,-12.1222504044,-11.9119845036
3,-5.67361170626,-5.58799246623,-5.43528024209,-5.20833788232,-4.9043483118,-4.5253716922,-4.07852434034,-3.57576304111,-3.03329040501,-2.47062620738,-1.90941487933,-1.37205934538,-0.88028508363,-0.453744541449,-0.108769865928,0.14262946257,0.293448125366,0.341998318576,0.291842031488,0.151365862789,-0.0669434964143,-0.347437293173,-0.672354066393,-1.02287586719,-1.38009868889,-1.72584737058,-2.04329446913,-2.31737306341,-2.53500112929,-2.68515734468,-2.75886318981,-2.74913268471,-2.65094829081,-2.46130958103,-2.17938153427,-1.80674397566,-1.34771584804,-0.809701554139,-0.203485936836,0.456606276599,1.15276853524,1.86405376411,2.56703565021,3.2367883976,3.84814094239,4.37712085647,4.80247026779,5.1070963518,5.27931558197,5.31376467432,5.21188030754,4.98189066457,4.63830977029,4.20097494671,3.69371278741,3.14275460819,2.57504415968,2.01658598181,1.49097180769,1.01819681867,0.613841090361,0.288649146313,0.0484974873864,-0.105298457542,-0.175415754898,-0.167788537346,-0.090804203792,0.0454787091187,0.230018787578,0.451337651805,0.697901105095,0.958338562777,1.22152626249,1.47657717586,1.71279119899,1.91962208625,2.08671268712,2.20403811311,2.26217874835,2.25272337704,2.1687799041,2.00555069783,1.76091476583,1.43595170511,1.03534284666,0.567592380593,0.0450243205505,-0.516471471857,-1.09795125739,-1.6781746304,-2.23457624098,-2.74440597092,-3.18597843443,-3.53996110431,-3.79062047818,-3.92693917939,-3.94351611725,-3.84116857522,-3.62716986532,-3.31507846899,-2.92414308788,-2.47830057828,-2.00481735511,-1.53265629146,-1.09067753722,-0.705800679771,-0.401265206566,-0.195124465341,-0.0990940165772,-0.117848454209,-0.248823201556,-0.482533077843,-0.80337272591,-1.19082128651,-1.62094071208,-2.06803794696,-2.5063574024,-2.91168049288,-3.26273001662,-3.54230421934,-3.73809389649,-3.84316233302,-3.85609012996,-3.78080421143,-3.62612278355,-3.40505662559,-3.13391287176,-2.83125118856,-2.51674459635,-2.20999893052,-1.92938709976,-1.69095744768,-1.50747890356,-1.38768683729,-1.33578940848,-1.35128218155,-1.42909817912,-1.56009268634,-1.73182985366,-1.92960542573,-2.13761148946,-2.3401299767,-2.5226360902,-2.67270335516,-2.78062842503,-2.83973288251,-2.84634527352,-2.79951196362,-2.70052199866,-2.55235184748,-2.35913642593,-2.12575322304,-1.85757129469,-1.56037424786,-1.2404252036,-0.904610326967,-0.560581507689,-0.216820176946,0.117438754709,0.432456069567,0.718411440438,0.965970648651,1.16694168859,1.31494792074,1.40603938273,1.43916606191,1.41644843664,1.34319921666,1.22767397063,1.08055523786,0.914202767627,0.741729476896,0.57598593156,0.428552568405,0.308845270639,0.223433652907,0.175651429061,0.165545776639,0.190171498368,0.244192075597,0.320710658827,0.412226376785,0.511599613437,0.612915502056,0.712155897646,0.807621745736,0.900083564122,0.992671078761,1.09053890279,1.20036133029,1.32971649073,1.48642061878,1.67786957693,1.91043880308,2.18898525872,2.51648563941,2.89383385472,3.31980791054,3.79120278042,4.30311275556,4.84933500646,5.42285632231,6.01637777217,6.62282788508,7.23581443944,7.84996870759,8.46114446614,9.06644711264,9.66408494542,10.2530537288,10.8326854758,11.4021108664,11.9596992882,12.5025486363,13.0260972455,13.523922499,13.9877755946,14.4078810119,14.7735042447,15.0737645446,15.298642951,15.4401114918,15.4932887144,15.4575116493,15.3372072604,15.1424493829,14.8891014026,14.5984712731,14.2964441148,14.0121073561,13.7759405262,13.617700064,13.5641804902,13.6370678923,13.8511119507,14.2128240121,14.7198610816,15.361184059,16.1179919733,16.9653436835,17.8742965708,18.8143293461,19.7557819994,20.6720451882,21.5412645412,22.3473883571,23.0804718336,23.7362462771,24.3150554104,24.8203407516,25.2569133063,25.6292714265,25.9402108085,26.189923946,26.3757102013,26.4923254586,26.5329056882,26.4903156827,26.3587151483,26.1351079039,25.8206489868,25.42152538,24.9492897915,24.4206013333,23.85639984,23.2806020326,22.7184516179,22.1946795943,21.7316368338,21.3475519236,21.0550474035,20.8600205761,20.7609641426,20.7487699669,20.8070287556,20.912810681,21.0378868554,21.1503283399,21.2163974872,21.2026262475,21.0779589464,20.8158251345,20.3960037944,19.8061454816,19.0428348117,18.1121017571,17.0293249304,15.8185110242,14.510978995,13.1435224337,11.7561659324,10.3896680604,9.08295135042,7.87065471809,6.78100262058,5.83416583927,5.04125081186,4.40400007565,3.91522029901,3.55988367367,3.31678197453,3.16055974446,3.06392192928,2.9998066435,2.94333552487,2.87339728102,2.77377583565,2.63379273575,2.44848472784,2.21837486446,1.94891628043,1.649693062,1.33345661233,1.01506398197,0.710371663333,0.435127859511,0.203900302442,0.0290759491377,-0.0800276763456,-0.117894709831,-0.08333885162,0.0202189102778,0.184759572953,0.397983306322,0.643934826817,0.903914844383,1.15763394515,1.38454604967,1.56528212452,1.68309120389,1.72518525987,1.68387790181,1.55740609,1.35033193228,1.07344175378,0.743094741853,0.380023542657,0.00765007239395,-0.349956562435,-0.670297043591,-0.934612230841,-1.12977225825,-1.24966560599,-1.29591412895,-1.27780868877,-1.21144432471,-1.11812340883,-1.02217906717,-0.948439168274,-0.919595032446,-0.953753122935,-1.06243027011,-1.24920521011,-1.50916702138,-1.829213527,-2.18916127107,-2.56354488805,-2.92391742699,-3.24142138027,-3.48938621815,-3.64572163543,-3.69491193394,-3.62946837099,-3.45075405735,-3.16915183475,-2.80359297696,-2.38049944424,-1.93221369135,-1.49499988965,-1.10670387118,-0.804162497279,-0.620462198022,-0.58216428023,-0.706640711008,-0.999693967008,-1.45366051535,-2.04621033811,-2.74004609025,-3.4836691994,-4.21331476387,-4.8560653918,-5.33404353553,-5.56946350636,-5.49021191903,-5.03553394718,-4.16134742277,-2.84469973883,-1.08693019372,1.08479890896,3.61779600616,6.43598473763,9.44375422118,12.531217952,15.580468184,18.4723442586,21.0932153958,23.3413056078,25.132149368,26.4028478837,27.1148851361,27.2553520017,26.8365121699,25.8937257153,24.4818281817,22.670148621,20.5364411325,18.1600988622,15.6151095512,12.9632851202,10.2483393644,7.49138296741,4.68834270546,1.80968740988,-1.19733886792,-4.40400221678,-7.89315603801,-11.7506234291,-16.0556001159,-20.8709290856,-26.2341466887,-32.1501505618,-38.586194412,-45.4696899887,-52.6890218761,-60.0972935884,-67.5186623871,-74.7567172044,-81.6042284001,-87.8535538071,-93.3070123679,-97.7866143844,-101.142641768,-103.260681209,-104.066814626,-103.530761883,-101.666856316,-98.5328236926,-94.2264378128,-88.8802427379,-82.654656082,-75.7298853061,-68.2971813325,-60.5500041013,-52.6756720462,-44.8480095105,-37.2213994165,-29.9265069574,-23.0677820599,-16.7226930486,-10.9425083985,-5.75434078197,-1.16410565515,2.8399726215,6.28365451388,9.20307615545,11.6414648976,13.6463291828,15.2671955913,16.5538973527,17.5553629128,18.3188132474,18.8892542793,19.3091463852,19.618145207,19.8528334346,20.0463969899,20.2282354286,20.4235294015,20.652812223,20.9316044489,21.2701694911,21.6734371968,22.1411247574,22.6680639951,23.2447242247,23.8579033966,24.4915493874,25.1276692813,25.7472869599,26.3314163996,26.8620267384,27.3229821012,27.7009417689,27.9862030996,28.173460511,28.2624401136,28.258354316,28.1721086009,28.0201890649,27.8241686922,27.6097947611,27.4056580257,27.2414919825,27.1462009137,27.1457606496,27.2611685017,27.5066324958,27.8881814905,28.4028469007,29.0385166373,29.7744981594,30.5827577131,31.429735379,32.2785788975,33.0916004942,33.832744855,34.4698646904,34.9766311861,35.3339548208,35.5308497488,35.564733346,35.4412035339,35.1733742673,34.7808711139,34.2885940647,33.72534593,33.1224060173,32.5121053048,31.9264361948,31.3957119452,30.9472820479,30.6043125078,30.3846537689,30.2998401571,30.3542867397,30.544765237,30.8602441921,31.2821670999,31.7852162239,32.3385727228,32.9076399694,33.4561510705,33.948537826,34.3524009693,34.6408949917,34.7948296209,34.8042975801,34.6696659987,34.4018153593,34.0215711393,33.5583436921,33.0480650932,32.5305808897,32.046712645,31.6352462819,31.3301148107,31.1580279043,31.1367548729,31.2741965623,31.5682948125,32.0077377567,32.573338528,33.239904843,33.9783842308,34.758065903,35.548642007,36.3219713142,37.0534391175,37.7228610742,38.3149305269,38.8192542606,39.2300569672,39.5456567371,39.7678207863,39.9011022375,39.9522370882,39.9296494497,39.8430781737,39.7033051956,39.5219412342,39.3112125969,39.0836962291,38.8519679936,38.6281571267,38.4234309298,38.2474603433,38.1079328479,38.0101808527,37.9569815582,37.9485612916,37.9828081733,38.0556667071,38.1616612882,38.2944769082,38.4475176863,38.6143686583,38.7891027744,38.9664004521,39.1414788572,39.3098572824,39.4670092578,39.6079687844,39.7269665231,39.8171721753,39.8706123766,39.8783199775,39.8307516327,39.718487602,39.5332023385,39.2688683302,38.9231295985,38.4987553117,38.0050581007,37.4591365626,36.8867794873,36.322854938,35.8110065398,35.4024986097,35.1540962062,35.1249379944,35.3724571856,35.947522339,36.8890945746,38.2188158862,39.9360373821,42.0138485175,44.3966629925,46.9998432747,49.7117011046,52.398003577,54.9088624279,57.0876169309,58.7810736602,59.8502750827,60.1808628182,59.6920975063,58.3436975005,56.1398502784,53.1300090045,49.4063804877,45.0983063309,40.3640058478,35.3803630842,30.331584592,25.3976209578,20.7432327254,16.5084968081,12.801405377,9.69302177009,7.21544445929,5.3626071422,4.09372609234,3.33900913533,3.00707668756,2.99342568443,3.18920229497,3.48954708444,3.80084005888,4.04629919296,4.16956312824,4.13609813905,3.9324878438,3.56386689459,3.04992493448,2.42001794951,1.70797146795,0.947142184943,0.16622697255,-0.613817341659,-1.38153664229,-2.13538520949,-2.88289217556,-3.63883499391,-4.42275238766,-5.25616630959,-6.15987063327,-7.15159057193,-8.24423316418,-9.44485002181,-10.7543330459,-12.167773725,-13.6753455158,-15.2635224186,-16.9164285508,-18.6171241206,-20.3486703559,-22.0948735597,-23.8406769448,-25.5722365839,-27.2767732267,-28.9423258698,-30.5575410639,-32.1116142738,-33.594461095,-34.9971448007,-36.3125317461,-37.5360963419,-38.6667597542,-39.7076258697,-40.6664763646,-41.555903625,-42.3929936691,-43.1985176256,-43.9956449342,-44.8082484785,-45.6589251803,-46.5668992624,-47.5460043326,-48.6029508738,-49.7360755948,-50.9347381332,-52.1794802151,-53.442995607,-54.6918810367,-55.8890557323,-56.9966591918,-57.9791729444,-58.8064714606,-59.4564969739,-59.9172763769,-60.1880547749,-60.2794041841,-60.2122676439,-60.0160068248,-59.7256230828,-59.3784072933,-59.0103345201,-58.6525501626,-58.3282919562,-58.0505568569,-57.8207558277,-57.6285081487,-57.4526181667,-57.2631614408,-57.024494957,-56.6989083145,-56.2505597926,-55.6493020483,-54.8740035834,-53.9150167543,-52.7755281732,-51.4716441619,-50.0311988927,-48.4914097764,-46.8956275096,-45.2895231368,-43.7171111852,-42.2170203367,-40.8193904857,-39.5437024339,-38.3977440057,-37.3777971365,-36.4700081114,-35.6527894353,-34.9000057861,-34.1846242292,-33.4824643323,-32.7756694658,-32.0555374997,-31.3243970638,-30.5962928499,-29.8963469047,-29.2587870953,-28.7237703717,-28.3332648046,-28.1263751446,-28.1345850881,-28.3774304362,-28.8591007515,-29.5663903745,-30.4682889138,-31.5173306298,-32.6526312065,-33.8043518434,-34.8991672022,-35.8661957887,-36.6427939607,-37.1796256671,-37.4444984238,-37.42459253,-37.1268883073,-36.5767930116,-35.8151604665,-34.8940590877,-33.8717592218,-32.8074672821,-31.7563291208,-30.7651635568,-29.8692805607,-29.090603042,-28.4371640217,-27.9039091161,-27.474612155,-27.1246201309,-26.8240890843,-26.5413571375,-26.24612282,-25.9121505603,-25.5193022153,-25.0547831377,-24.5135820456,-23.8981652749,-23.2175499507,-22.4859230966,-21.7209943013,-20.9422701817,-20.1694221553,-19.4208875076,-18.7128003063,-18.0582976367
3,-4.25801278129,-4.46891461104,-4.73440640331,-5.02836769782,-5.3218902575,-5.58527914802,-5.79015749656,-5.9114859309,-5.92932163629,-5.8301731525,-5.60785157222,-5.2637711717,-4.80670613296,-4.252058318,-3.6207286335,-2.93770800605,-2.23051222758,-1.52757891016,-0.856727573341,-0.243760450345,0.288742073047,0.722396215723,1.04373606689,1.24466317107,1.32260956781,1.28040496325,1.12584987037,0.871014824071,0.531310149195,0.124397591663,-0.330961145953,-0.816009304467,-1.31294311034,-1.80560864925,-2.27988560097,-2.72374097178,-3.12698694476,-3.48082485856,-3.77729328539,-4.00875554396,-4.16755731858,-4.24595840127,-4.2363973329,-4.13209041354,-3.92790623608,-3.62140384429,-3.21388621521,-2.71130733134,-2.12488244724,-1.4712843908,-0.772357431996,-0.0543363717654,0.653385623001,1.31984746942,1.91433744163,2.40828144729,2.77703839752,3.00144792389,3.06900148329,2.97454747495,2.72048921055,2.31648465291,1.77870185544,1.1287184374,0.392173993688,-0.402709449546,-1.22662983292,-2.05063545056,-2.84740661434,-3.5923309909,-4.26433417178,-4.84644686644,-5.32611127903,-5.69525101969,-5.95014859139,-6.09118812718,-6.12252508633,-6.05173739524,-5.88949488344,-5.6492589673,-5.34699718345,-5.00087299724,-4.63085578436,-4.25819329728,-3.90470139903,-3.59185263724,-3.33968266969,-3.16557565586,-3.08302928716,-3.10052993548,-3.22068231537,-3.43973176289,-3.74758882061,-4.12841646051,-4.56177493153,-5.02424670697,-5.49139583995,-5.93986397155,-6.34937840086,-6.70445048476,-6.9955746306,-7.21979464013,-7.38057764717,-7.48701695067,-7.55246345045,-7.59275149985,-7.62423095092,-7.66183756152,-7.71742610321,-7.79855497203,-7.90785185983,-8.0430143562,-8.19741697219,-8.36121809056,-8.52279770137,-8.67031852825,-8.79319482839,-8.88327585807,-8.93560125731,-8.94865571632,-8.92412916921,-8.86626358383,-8.78092584856,-8.67457886588,-8.55332521482,-8.42217106809,-8.28460950009,-8.14256266166,-7.99666307883,-7.84680511982,-7.69286440692,-7.53546764624,-7.37669675276,-7.22062586209,-7.0736136,-6.94430188569,-6.84330370526,-6.78259399136,-6.77464868212,-6.83140535919,-6.96314180643,-7.17738318136,-7.47795155862,-7.86426200867,-8.33094742012,-8.86786205671,-9.46047524015,-10.0906268342,-10.737580912,-11.3792875201,-11.9937472342,-12.5603696936,-13.0612243619,-13.4820969302,-13.8132847476,-14.0500860142,-14.1929575964,-14.2473342349,-14.2231185094,-14.1338682248,-13.9957274906,-13.8261695415,-13.642641212,-13.4612174019,-13.2953845804,-13.1550712255,-13.0460270517,-12.9696212189,-12.9230848975,-12.9001713351,-12.8921550043,-12.8890491419,-12.8808953051,-12.8589741483,-12.8168044845,-12.7508346287,-12.6607788312,-12.5496027212,-12.423205583,-12.289876758,-12.1596148971,-12.0433925029,-11.9524281261,-11.8975011539,-11.888316794,-11.93290848,-12.0370566057,-12.2037087186,-12.4324061937,-12.7187513471,-13.0539793159,-13.4247221435,-13.8130607693,-14.196949116,-14.5510619371,-14.8480677175,-15.0602671954,-15.1614774052,-15.1289914859,-14.9454150253,-14.6001760289,-14.0905289609,-13.4219207087,-12.6076514995,-11.667838539,-10.627765432,-9.51576759948,-8.36085542936,-7.19030737586,-6.02747187726,-4.88999960393,-3.78868816595,-2.72706364131,-1.70175223389,-0.703617424641,0.280439660572,1.265189002,2.26451762205,3.28887629833,4.34300127293,5.4241680054,6.52118895109,7.61429801791,8.6759780552,9.67269398667,10.567402784,11.3226309876,11.903848007,12.2828247759,12.440656942,12.3701518815,12.0773286037,11.5818549749,10.9163411968,10.1245140301,9.25840342553,8.37477162446,7.53109397483,6.78145140364,6.17270976252,5.74133785977,5.51115508999,5.49220678728,5.68085014569,6.06100798856,6.60642568609,7.28366230124,8.05547365854,8.88421260742,9.73488535045,10.5775607354,11.3889234874,12.1528786961,12.8602367493,13.5076186122,14.0958070635,14.6278212609,15.1070063354,15.5354079884,15.912649435,16.2354522537,16.497853235,16.6920763437,16.8099325412,16.8445496787,16.7921876022,16.6538754441,16.4366214629,16.1539901808,15.8259129663,15.4776892882,15.1382363261,14.837741951,14.6049568778,14.4644137659,14.4338755599,14.5222897078,14.7284636979,15.040591932,15.4366692949,15.8857374472,16.3498367485,16.786485699,17.1514821118,17.4018137214,17.4984762483,17.4090186789,17.1096634446,16.5868795264,15.8383178553,14.8730513814,13.7110983607,12.3822475431,10.9242470632,9.38046217505,7.79714686919,6.22050720033,4.69375637899,3.25436998096,1.93174131366,0.745411398442,-0.295992522185,-1.19502708865,-1.96488539109,-2.62806423179,-3.21433506397,-3.75815946437,-4.29573359697,-4.86187814687,-5.48700788626,-6.1944164324,-6.99809570772,-7.90127562532,-8.89581808159,-9.96253274058,-11.0724052803,-12.1886492474,-13.2694192782,-14.2709645062,-15.1509626341,-15.8717605984,-16.4032573454,-16.7251961373,-16.8286845839,-16.7168257463,-16.4044177521,-15.9167562559,-15.2876471177,-14.5567994951,-13.7668170946,-12.9600347452,-12.175458004,-11.4460555967,-10.7966287388,-10.2424383578,-9.78871200833,-9.4310790311,-9.15689909032,-8.94736154557,-8.78014937357,-8.63239159731,-8.48358298781,-8.31813827785,-8.127275828,-7.90999312244,-7.67299846581,-7.42958918309,-7.1976013988,-6.9966821948,-6.84523327282,-6.7574302311,-6.74072262495,-6.79416440823,-6.90781852054,-7.06333809006,-7.23567067231,-7.39568404532,-7.51339347435,-7.56139710476,-7.51810693746,-7.37039797715,-7.11537985139,-6.7611093351,-6.32619081723,-5.83833602034,-5.33205781818,-4.84574468233,-4.41839789569,-4.08631543218,-3.87998106233,-3.82137369832,-3.92185930045,-4.180773658,-4.58475473865,-5.10784133187,-5.71232139134,-6.35028792685,-6.96584004472,-7.49784811259,-7.88318097551,-8.06026663865,-7.97282541488,-7.57357933319,-6.82771002752,-5.71581750871,-4.23613186392,-2.40575446341,-0.260756733856,2.1449588911,4.7420354513,7.44916919848,10.1775380075,12.8358487423,15.3356349303,17.5964020421,19.5502217037,21.1454187318,22.3490708689,23.1481402475,23.5491647512,23.5765436721,23.2695457596,22.6782438968,21.8586386007,20.8672748062,19.7556870773,18.5650311888,17.3212758585,16.0313336926,14.6804972386,13.2315045808,11.6254808305,9.78488343609,7.61842366341,5.02775524096,1.91553331888,-1.80572278606,-6.20465577985,-11.3227399205,-17.1673325372,-23.7067504397,-30.8678471908,-38.5363487324,-46.5599626666,-54.7540420521,-62.9093868957,-70.8016263755,-78.2015510781,-84.8857533796,-90.6469718021,-95.3036031601,-98.7079272502,-100.752671208,-101.375620708,-100.562066097,-98.3449605038,-94.8027706722,-90.0551222274,-84.2564748972,-77.5881982545,-70.2495375867,-62.4480442867,-54.3900816479,-46.2719989436,-38.2724962903,-30.5465888132,-23.2214340794,-16.3941269347,-10.1314069637,-4.47108148786,0.575145248126,5.01781902764,8.885270761,12.2189396313,15.0688366422,17.4894280922,19.5361325136,21.2625373606,22.7183629479,23.9481374036,24.9905010606,25.8780321137,26.6374754384,27.2902595463,27.8531985628,28.3392927989,28.7585594422,29.1188414435,29.4265562447,29.6873560705,29.9066783255,30.0901688172,30.24396285,30.3748108009,30.4900370406,30.5973257714,30.7043362309,30.818164029,30.9446853619,31.0878449135,31.2489727082,31.4262345708,31.6143290987,31.8045358204,31.9851911937,32.1426212921,32.2624968598,32.3315068904,32.3391831425,32.2796624542,32.1531560248,31.9669099496,31.7354887761,31.4802878262,31.2282699136,31.0100145295,30.8572494702,30.8000958211,30.8642905497,31.0686540409,31.4230441831,31.9269892631,32.5691264462,33.3274990803,34.1706918499,35.059714055,35.9504826909,36.7967118769,37.552985742,38.1777797111,38.6362013805,38.9022472028,38.9604137646,38.8065589452,38.4479730508,37.9026866158,37.1981037609,36.3691022383,35.4557786372,34.5010356949,33.5482060997,32.6388839047,31.8110936994,31.0978746404,30.5262992737,30.1168951606,29.8833992694,29.8327563067,29.9652734892,30.2748626475,30.7493305614,31.3707134469,32.1156846204,32.9560890893,33.8596702168,34.7910488444,35.7129938692,36.587987149,37.380039138,38.0566616056,38.590858576,38.9629646134,39.1621473198,39.1874020382,39.0479015006,38.7626182372,38.3592065173,37.8722051589,37.3406940998,36.8055978261,36.3068697218,35.8808064814,35.5577272086,35.36020844,35.301999774,35.3876651459,35.612914826,35.9655257291,36.4267025852,36.9727147265,37.5766512934,38.2101644123,38.8451046059,39.4549845975,40.0162300391,40.5091879351,40.9188698281,41.2354124639,41.4542471705,41.5759815432,41.6060122361,41.5539036073,41.432581223,41.2573997309,41.045150281,40.8130733611,40.577939151,40.3552498626,40.1586072358,39.9992731559,39.8859320714,39.8246413713,39.8189328254,39.8700089559,39.9769676232,40.1369899007,40.3454419798,40.5958699845,40.8799028158,41.187115525,41.5049360012,41.8186934525,42.1119036271,42.3668624735,42.5655804003,42.6910392744,42.7287002484,42.6681385442,42.5046372356,42.2405419852,41.8861690662,41.4600755993,40.9885470072,40.5042312717,40.0439465098,39.6457961845,39.3458296419,39.1745682507,39.1537651079,39.2937698956,39.5918273123,40.0315514793,40.5836995485,41.2082292005,41.8574828858,42.4802128054,43.0260595164,43.450035507,43.7165511016,43.8025570231,43.699463866,43.4136257793,42.9653303123,42.3864007053,41.7166710113,40.999719484,40.2783265989,39.5901513022,38.9640893879,38.4176949002,37.9559194336,37.5712710468,37.2453336277,36.9514390623,36.6581661104,36.3332638956,35.947569859,35.4785104051,34.9128303317,34.2482845352,33.494131868,32.6703865213,31.8058981556,30.9354404166,30.0960814425,29.3231827577,28.6464179975,28.0862141813,27.6509914773,27.3355116031,27.1205438596,26.9739300283,26.8529878608,26.7080528819,26.4868352148,26.139175813,25.6217352459,24.9021442508,23.9621901626,22.799703657,21.4289377394,19.8793831337,18.1931256308,16.4210042021,14.6179561934,12.8380219787,11.1295146707,9.53083603828,8.0673408058,6.74952908001,5.57269796697,4.51802838565,3.55494021997,2.64443267965,1.74304631216,0.807043075377,-0.203598130595,-1.32173385007,-2.57044808426,-3.96147964425,-5.49476987356,-7.15910094495,-8.93368718335,-10.7904925036,-12.6969860311,-14.6190219127,-16.5235402218,-18.3808310389,-20.166176489,-21.8607754818,-23.4519505412,-24.9327226529,-26.3009078566,-27.5579310763,-28.7075646994,-29.7547817142,-30.7048698855,-31.5628923274,-32.3335113021,-33.0211273835,-33.6302352772,-34.1658674238,-34.6339897318,-35.0417293607,-35.3973487,-35.709927018,-35.9887647553,-36.2425772478,-36.4785867184,-36.701646603,-36.9135361198,-37.1125446526,-37.2934283402,-37.4477718409,-37.5647346695,-37.6321116349,-37.6375971829,-37.5701184563,-37.4210940842,-37.1854852798,-36.8625305798,-36.4560913018,-35.9745761711,-35.4304551718,-34.8394100344,-34.2191987747,-33.5883327503,-32.9646766189,-32.3640849951,-31.7991851583,-31.2784033284,-30.8053135404,-30.3783643438,-29.9910110393,-29.6322514638,-29.2875328415,-28.9399675701,-28.5717690422,-28.1657970222,-27.7070880331,-27.1842416615,-26.590540187,-25.9246971328,-25.1911598006,-24.3999299423,-23.5659124426,-22.7078498613,-21.8469453099,-21.0053112073,-20.2044009318,-19.4635796304,-18.79896792,-18.2226508276,-17.7422914084,-17.36113399,-17.0783358355,-16.8895356354,-16.7875560492,-16.763144583,-16.8056777984,-16.9037814099,-17.0458462411,-17.2204416946,-17.4166410736,-17.6242758129,-17.8341297647,-18.0380735335,-18.22912728,-18.4014333138,-18.5501206795,-18.6710540063,-18.760476777,-18.8145813201,-18.829059457,-18.7987040017,-18.7171380134,-18.5767429287,-18.3688377627,-18.0841319332,-17.7134391641,-17.2486053832,-16.6835741614,-16.0154914769,-15.2457382768,-14.3807747695,-13.4326850174,-12.4193248026,-11.3640004028,-10.2946406666,-9.2424682726,-8.24022567373,-7.32006328508,-6.5112473593,-5.83788697349,-5.31690655367,-4.95649458683,-4.75523402275,-4.70206276295,-4.77712706241,-4.95348641328
3,-4.5783608747,-4.35966320645,-4.13247609756,-3.89634685128,-3.64705377902,-3.37776393544,-3.08066613522,-2.74885047113,-2.37816906886,-1.96881144318,-1.52636128426,-1.06216514358,-0.592929226423,-0.139557748322,0.274656955778,0.626298144736,0.894286343888,1.06225194124,1.12053469883,1.06756344524,0.91043684242,0.664616440152,0.352745277597,0.00270603547832,-0.354880626961,-0.689454557182,-0.973316619247,-1.1841378438,-1.3069180457,-1.33519804564,-1.27141462019,-1.12638340604,-0.917990235934,-0.669254363301,-0.405988212711,-0.154310996732,0.0617250618905,0.222165295956,0.312660943282,0.325342592487,0.259017666015,0.118719384451,-0.0853064051854,-0.339044633238,-0.626421977088,-0.931106473446,-1.23821453279,-1.53575567951,-1.81567112113,-2.07436211909,-2.3126565106,-2.53522294282,-2.74950652924,-2.96431897733,-3.18826213534,-3.4281884881,-3.68790026381,-3.96725974205,-4.26183111424,-4.56310654996,-4.85929543496,-5.13658563804,-5.38072771011,-5.57875375565,-5.72062625062,-5.80061932109,-5.818264508,-5.77874144883,-5.69265619363,-5.57521967626,-5.44490872642,-5.3217537364,-5.22544259747,-5.17345325541,-5.17942363766,-5.25193786113,-5.39385516034,-5.60223960423,-5.8688736934,-6.18126819041,-6.52402454145,-6.88037293963,-7.2337022936,-7.56891742171,-7.87349887786,-8.1381938395,-8.3573225437,-8.52873416598,-8.65348140526,-8.7353006517,-8.77998475881,-8.79472162471,-8.78744938665,-8.76625414924,-8.73881481137,-8.71188672513,-8.69081443467,-8.6790735112,-8.67785967076,-8.68576510559,-8.69860133577,-8.70943869037,-8.70892938325,-8.6859608052,-8.62864803187,-8.52562327918,-8.36752248181,-8.148515664,-7.86768979142,-7.53008029256,-7.14716633492,-6.73669557154,-6.32178089427,-5.92930414466,-5.58775585543,-5.32472117701,-5.16427720217,-5.12458694214,-5.21595671754,-5.43956936766,-5.7870240749,-6.24071800129,-6.77501075938,-7.35803442206,-7.95395968211,-8.52550715737,-9.03649951821,-9.4542776833,-9.75184232819,-9.90961973463,-9.91678098055,-9.77206323537,-9.48405404168,-9.07090927428,-8.5594887532,-7.98391478285,-7.38359027098,-6.80075350112,-6.277692286,-5.8537856606,-5.5625802253,-5.42913402043,-5.46786681666,-5.68113666275,-6.05871587119,-6.578266727,-7.20682421669,-7.90319075753,-8.6210501013,-9.31252849777,-9.93188239456,-10.4389800417,-10.8022701404,-11.0009895402,-11.0264452343,-10.8823021496,-10.5839051198,-10.156749387,-9.63427989837,-9.05524015993,-8.46080525753,-7.89172336218,-7.38566082331,-6.97490464627,-6.68453011419,-6.53109732049,-6.5219034635,-6.65479033193,-6.91848794271,-7.29346276238,-7.75322798944,-8.266059779,-8.79704440177,-9.31035707905,-9.77164640948,-10.1503739748,-10.4219430458,-10.5694489858,-10.5849005502,-10.4697961636,-10.2349894385,-9.89983818339,-9.49069425728,-9.03885112385,-8.57811568341,-8.14220564481,-7.76218935291,-7.46417949954,-7.26746577803,-7.18322702225,-7.21390555298,-7.35326180193,-7.58706336989,-7.89430745211,-8.2488360626,-8.62118421657,-8.98050313872,-9.2964210389,-9.54073752435,-9.68888679164,-9.72114102873,-9.62355138707,-9.38863447404,-9.01580677435,-8.51155186146,-7.88928407806,-7.16885788011,-6.3756732813,-5.53934968453,-4.69198226705,-3.8660513642,-3.09211664158,-2.39648285937,-1.79906098964,-1.31165744013,-0.936899395904,-0.667945852585,-0.489048112746,-0.376922310739,-0.302795650137,-0.234903957718,-0.141164617618,0.00826587723756,0.238815429691,0.569907028137,1.01407916525,1.57684400683,2.25721956568,3.04879556198,3.94114083962,4.92133867002,5.97544576548,7.08970713284,8.25141356799,9.44935099883,10.6738509999,11.9165021319,13.1696177977,14.4255762159,15.676152326,16.9119521178,18.1220399846,19.293822065,20.4132154659,21.4650970649,22.433989406,23.3049093404,24.0642823837,24.7008163962,25.2062342826,25.57578628,25.8084944837,25.9071196975,25.8778768828,25.7299546332,25.47491241,25.126035198,24.6977193098,24.2049474391,23.6628889909,23.0866368585,22.4910676757,21.8907921372,21.300147715,20.7331798454,20.2035602133,19.7244013763,19.307943433,18.9651076657,18.7049311699,18.5339132705,18.4553178521,18.4684852487,18.5682134619,18.7442719102,18.9811118345,19.2578350192,19.5484750452,19.822631337,20.0464749327,20.1841163273,20.1992912831,20.057282936,19.7269618695,19.1827950991,18.4066555626,17.3892609019,16.1310877116,14.6426461074,12.9440571211,11.0639460281,9.03773897018,6.90551719923,4.70963259523,2.49231238549,0.293477078878,-1.85103532695,-3.91069937677,-5.86091653008,-7.68302134767,-9.36376245788,-10.8944046412,-12.2696405691,-13.4865157472,-14.5435560042,-15.4402452798,-16.1769378977,-16.75521244,-17.1785945611,-17.4535054107,-17.5902419353,-17.6037740425,-17.5141561784,-17.3463967526,-17.1297017775,-16.8960981077,-16.6785331512,-16.5086280664,-16.4143183707,-16.4176412896,-16.5329196918,-16.7655500849,-17.1115336709,-17.5578050064,-18.0833243218,-18.6608192291,-19.2589998009,-19.8450344635,-20.3870644246,-20.8565484633,-21.2302619061,-21.4918165327,-21.6326154785,-21.6522036699,-21.5580163855,-21.3645646531,-21.0921266793,-20.7650408584,-20.4097196763,-20.0525253532,-19.7176656166,-19.4252778997,-19.1898680742,-19.0192517931,-18.9141107368,-18.8682233366,-18.8693638449,-18.9007917182,-18.9431840379,-18.9768067549,-18.9836849887,-18.9495252497,-18.8651664222,-18.7273903372,-18.5390010345,-18.3081749377,-18.04718009,-17.7706481344,-17.493645023,-17.2298150975,-16.9898622689,-16.780581703,-16.6045723807,-16.4606573764,-16.344930339,-16.2522497328,-16.1779310651,-16.1193514851,-16.07718516,-16.0560303675,-16.0642641006,-16.1130576441,-16.2145958639,-16.3796521406,-16.6147685083,-16.9193658814,-17.2831529806,-17.6842077078,-18.0880675978,-18.4480868927,-18.7072015378,-18.8010994948,-18.662636168,-18.2271808608,-17.4384489554,-16.2542838971,-14.6518171619,-12.6314609287,-10.2192767948,-7.46740574413,-4.45242364987,-1.27168219777,1.96211487043,5.12768616945,8.1027613435,10.7718770228,13.033758442,14.8077047997,16.0384831394,16.6993571124,16.7930192344,16.3503451373,15.4270362049,14.0983570771,12.4523038584,10.581655328,8.57545947143,6.51058479672,4.44401074213,2.40653303452,0.398507869736,-1.61185350772,-3.68730156854,-5.91736534375,-8.41132250598,-11.2887532343,-14.668368536,-18.6560143061,-23.3328839129,-28.7450024182,-34.8949644653,-41.7367198837,-49.1739262222,-57.0620591768,-65.2141318541,-73.4095640881,-81.4054980712,-88.949697221,-95.7940964722,-101.708085094,-106.490680004,-109.980868467,-112.065547121,-112.684648093,-111.833216679,-109.560385817,-105.965377769,-101.190847299,-95.4140532771,-88.8364924352,-81.6727334732,-74.1392364091,-66.4439210513,-58.777158055,-51.3047040732,-44.162905764,-37.4562791228,-31.2573567819,-25.6085111523,-20.5253249445,-16.0010042303,-12.0113153663,-8.51956965385,-5.48126546465,-2.8481092864,-0.571256283448,1.3962788089,3.09799995452,4.57299358829,5.85553855483,6.9751120842,7.95665091527,8.82094999204,9.58511235975,10.2629972401,10.8656439382,11.4016736279,11.8776869711,12.2986820263,12.6685140715,12.9904078408,13.2675154357,13.5034931144,13.7030513457,13.8724191376,14.0196592445,14.1547773392,14.2895851469,14.4373019362,14.6119060719,14.8272739918,15.0961650223,15.4291261545,15.8334020767,16.311943414,16.8626103749,17.4776686009,18.1436665953,18.8417668991,19.5485740786,20.2374611597,20.8803444128,21.4497991896,21.9213543342,22.2757586762,22.5009891751,22.5937730491,22.5604284146,22.4168876332,22.1878481667,21.9050872105,21.6050668157,21.3260339442,21.1048753187,20.9740137712,20.9586287955,21.0744509102,21.3263226569,21.707646727,22.2007628189,22.778217355,23.4048199308,24.0403210453,24.6424996895,25.1704188491,25.5875941751,25.8648281485,25.9824900319,25.9320694384,25.7168942032,25.3519745496,24.8630070212,24.2846354624,23.6581166924,23.0285725633,22.4420276359,21.9424344558,21.568878947,21.3531393679,21.3177456516,21.474653325,21.824608822,22.3572422144,23.0518807201,23.8790332624,24.8024538382,25.7816504433,26.7746686878,27.7409485363,28.6440336012,29.4539102421,30.1487728374,30.7160546439,31.1526299437,31.4641773996,31.6637866684,31.7699772427,31.8043666321,31.789263013,31.7454583078,31.6904601161,31.6373307736,31.5942114416,31.5645148838,31.547688154,31.5403865372,31.5378669573,31.5354018484,31.5295297032,31.5189916877,31.505250003,31.4925380865,31.4874501336,31.4981326125,31.5331883086,31.6004390488,31.7057123512,31.8518169251,32.0378515629,32.2589536935,32.5065424812,32.7690529999,33.0330990013,33.2849478363,33.5121474092,33.7051163446,33.8584988729,33.9720983686,34.0512395945,34.1064686869,34.1525774159,34.2070258285,34.2879231295,34.4117971139,34.5914253049,34.8340077329,35.1399292923,35.5022921784,35.9073044565,36.3355015246,36.7636678549,37.1672327653,37.5228504344,37.8108507397,38.0172667703,38.1352029036,38.1653943028,38.1159114268,38.001067558,37.839680328,37.6529089168,37.4619294585,37.2857185581,37.1391892445,37.0318696533,36.9672401477,36.9427597414,36.9505289605,36.9784646487,37.0118118006,37.0347942394,37.0322112973,36.9908181205,36.9003748732,36.7543047798,36.5499529643,36.2884804678,35.9744570986,35.6152324146,35.2201679955,34.7998094959,34.3650672164,33.9264614924,33.4934750745,33.0740389128,32.6741606147,32.2976876869,31.9461833044,31.6188842864,31.3127118509,31.0223159897,30.740151599,30.4566043958,30.1602018164,29.8379534557,29.4758632277,29.0596394622,28.5756007449,28.0117388029,27.3588618775,26.6117102991,25.7699168258,24.8386818705,23.8290493783,22.7577015162,21.6462357164,20.5199403229,19.4061386014,18.3322189384,17.3235063609,16.4011531742,15.5802324958,14.8682078799,14.2639269458,13.7572495068,13.3293735974,12.9538682992,12.5983633653,12.2267866393,11.801986607,11.2885348693,10.6554772537,9.87879705027,8.9433718618,7.84424620577,6.58710140891,5.18787599419,3.67156586556,2.07030614425,0.420898166211,-1.23800991293,-2.86885577176,-4.43797211347,-5.91805164482,-7.29007963729,-8.54459156439,-9.68216872703,-10.7131460133,-11.6565682043,-12.5384892594,-13.3897580919,-14.2434711614,-15.1322947808,-16.0858670984,-17.1284803972,-18.2772185119,-19.5406829826,-20.9183880559,-22.4008438359,-23.9702855577,-25.6019524855,-27.2657789693,-28.9283372887,-30.554868757,-32.1112544949,-33.565805561,-34.8907870494,-36.0636255708,-37.0677791865,-37.8932709325,-38.5369013453,-39.0021631135,-39.2988840449,-39.4426251452,-39.4538609934,-39.3569716404,-39.1790800115,-38.948776107,-38.694777861,-38.4445863117,-38.2231976643,-38.0519353729,-37.9474609846,-37.9210136388,-37.9779159855,-38.1173702964,-38.3325537117,-38.6110065548,-38.9352932743,-39.2839031772,-39.6323490006,-39.9544156982,-40.2235083061,-40.4140445891,-40.5028342541,-40.4703819361,-40.3020467903,-39.9889887538,-39.5288323026,-38.9259849975,-38.1915620695,-37.3428902756,-36.4025933007,-35.397295037,-34.3560134472,-33.3083529076,-32.2826321288,-31.3041021803,-30.3934097953,-29.5654426437,-28.828656959,-28.1849382322,-27.6299891816,-27.1541834725,-26.7437764711,-26.3823323336,-26.0522140233,-25.7359900006,-25.4176357444,-25.0834452478,-24.7226113983,-24.3274784707,-23.8935085355,-23.4190308516,-22.9048554878,-22.3538286427,-21.7703900836,-21.1601684235,-20.5296245505,-19.8857337718,-19.2356875299,-18.5865974915,-17.9451966546,-17.3175489103,-16.7087935752,-16.1229588252,-15.5628745425,-15.0302010817,-14.5255689776,-14.0488008787,-13.5991673096,-13.1756181836,-12.7769358898,-12.4017731714,-12.0485661173,-11.7153432409,-11.3994790954,-11.0974596125,-10.8047330235,-10.5157139201,-10.2239896849,-9.92275042997,-9.60542923662,-9.26650352546,-8.90237579444,-8.51222687046,-8.09872014335,-7.6684333861,-7.23190844419,-6.80324092625,-6.39918255868,-6.03779404563,-5.73675659866,-5.51151265214,-5.37344786874,-5.32833866578,-5.37526944083,-5.5061745587,-5.70608947969,-5.95411313235
3,1.69918462307,2.13570450315,2.47752041957,2.70675679336,2.81256600521,2.79248756612,2.65327442858,2.41106814425,2.09085410409,1.72518722934,1.352241186,1.0132947059,0.749821823372,0.600394301148,0.597630294343,0.765430205261,1.11672678612,1.65194192537,2.35828996337,3.21000237928,4.16947882772,5.18930267013,6.21500146047,7.18838702628,8.05127502573,8.74935746449,9.23598162328,9.47557605815,9.44646334935,9.14281718673,8.57556485619,7.77210781258,6.77482876067,5.63846278364,4.42651755571,3.20701817179,2.04791355932,1.01250722211,0.155264469635,-0.481694352598,-0.871171848227,-1.00238124832,-0.881268952501,-0.529681993934,0.0165313249427,0.710330656116,1.49698780907,2.31802522039,3.11529667544,3.83490541716,4.43066474197,4.86684199944,5.11998857298,5.17974181772,5.04858185335,4.74062529152,4.27962705996,3.69642927267,3.02613441576,2.30528502285,1.56930443929,0.85039887846,0.176048727463,-0.431862870997,-0.957313908729,-1.38989628301,-1.72420178062,-1.95900947134,-2.09644047956,-2.14121939731,-2.10013536102,-1.98173765382,-1.79624010674,-1.55555587569,-1.27334900343,-0.964978587407,-0.64722800914,-0.337752744488,-0.0542378217934,0.186681307443,0.370624847758,0.48665298413,0.52826395991,0.494051551339,0.387902586761,0.218670468874,-0.00067131013294,-0.254320512258,-0.525243276002,-0.796891000067,-1.05482864211,-1.28807229291,-1.48996812464,-1.65850254532,-1.79600714587,-1.90830247409,-2.00340144363,-2.08995563621,-2.17566614726,-2.26588788636,-2.36262974865,-2.46409560679,-2.56483057296,-2.65644532576,-2.72880256959,-2.7714780313,-2.77526566156,-2.73349054822,-2.64292559169,-2.50417504254,-2.32147901541,-2.10199253403,-1.85468277704,-1.58905250897,-1.3139242899,-1.0365041083,-0.761887907476,-0.493090886982,-0.231583215323,0.0217758390328,0.265584937185,0.496749092383,0.709554563294,0.895165274814,1.04167629577,1.13477916215,1.15900219807,1.09939827558,0.943475296958,0.683113098804,0.316193673341,-0.152306224806,-0.709951692245,-1.33731801891,-2.00928612203,-2.69704988915,-3.37062196885,-4.00155275883,-4.56554236474,-5.04463192136,-5.42870772131,-5.71613278771,-5.91342589797,-6.03402533268,-6.09628997449,-6.12098921121,-6.12860144858,-6.13676786051,-6.15822751858,-6.19949348471,-6.2604256877,-6.33473095829,-6.41129291008,-6.47612391041,-6.51465394278,-6.51403622411,-6.46515942595,-6.36410721805,-6.21288848569,-6.01936339716,-5.79639725533,-5.56037179661,-5.32926060332,-5.12052349148,-4.94908999724,-4.82568387516,-4.75569157617,-4.73870397081,-4.76877122898,-4.83531743369,-4.92457720128,-5.02135363885,-5.11086449024,-5.1804450082,-5.22090956079,-5.22743179537,-5.19987474822,-5.14257580476,-5.06365574708,-4.97396775068,-4.88582686071,-4.81166377464,-4.76273311747,-4.74798206264,-4.77315615803,-4.84019019727,-4.94690588171,-5.08701637516,-5.25042121843,-5.4237633532,-5.59121242986,-5.73543345787,-5.83869472585,-5.88406128021,-5.85660867542,-5.74457673005,-5.54036769246,-5.2412830428,-4.84989487269,-4.37396702556,-3.82588008549,-3.22157022054,-2.57905740855,-1.91670265047,-1.2513838736,-0.596805322438,0.0378511613534,0.648762535115,1.23768149196,1.81150483497,2.38124472594,2.96052575035,3.56378390454,4.2043725753,4.89278377946,5.63517299679,6.43233840031,7.27925668021,8.16522390151,9.07459555298,9.98806840642,10.8844001937,11.7424229977,12.543174338,13.2719487827,13.9200660935,14.4861632029,14.9768493626,15.4066168749,15.7969710079,16.1748254641,16.5702940746,17.0140829126,17.5347377758,18.156021538,18.8946815366,19.7588220993,20.7470290999,21.8483121664,23.0428467372,24.3034225346,25.5974447045,26.8892931628,28.1428258674,29.3238117647,30.4020965849,31.353336571,32.1601787203,32.8128181945,33.3089207093,33.6529557472,33.8550405783,33.9294398824,33.892895583,33.7629716736,33.5565873338,33.2888800142,32.9724929482,32.6173250735,32.2307228623,31.8180402951,31.3834513388,30.9308729155,30.4648473722,29.9912420837,29.5176489714,29.0534058787,28.6092104875,28.1963496888,27.825616199,27.5060235967,27.2434565517,27.0394030954,26.8899110854,26.7848940421,26.7078853844,26.6363073041,26.5422825214,26.3939746571,26.157397093,25.7985836112,25.2859712894,24.5928127403,23.6994163363,22.5950134563,21.2790725868,19.7619204846,18.0645875629,16.2178629528,14.2606169382,12.237516099,10.1963113249,8.18491469759,6.24849477139,4.42681068646,2.75197635512,1.24680161374,-0.076195528796,-1.21506545533,-2.17800180151,-2.98226620028,-3.65254894324,-4.21887996111,-4.71422861425,-5.17195120372,-5.6232604811,-6.09489853643,-6.60718934743,-7.17262674618,-7.79511614002,-8.46993506855,-9.18441275004,-9.91925945644,-10.65041214,-11.3512124742,-11.9947046543,-12.5558369799,-13.0133736452,-13.3513674347,-13.5601026684,-13.6364809669,-13.5838805775,-13.4115658412,-13.1337529908,-12.7684511348,-12.3361949292,-11.8587720789,-11.358029464,-10.8548208946,-10.3681402558,-9.91446745315,-9.50734120313,-9.15716139908,-8.87121288153,-8.65389041496,-8.50709103512,-8.4307256544,-8.42328916036,-8.48242024482,-8.60538174835,-8.78940099333,-9.03182704452,-9.33008604033,-9.68144367461,-10.0826121281,-10.5292637583,-11.0155326133,-11.5335949019,-12.0734186987,-12.6227592243,-13.1674479596,-13.6919833932,-14.1803838526,-14.6172170439,-14.9886857498,-15.283632036,-15.4943273211,-15.6169429368,-15.651641858,-15.6022901044,-15.4758458882,-15.2815345658,-15.0299482094,-14.7322145004,-14.3993598093,-14.0419490605,-13.6700268121,-13.2933186951,-12.9215899545,-12.5650087878,-12.2343364998,-11.9407721389,-11.6953197965,-11.5076193958,-11.3842776209,-11.3268411986,-11.3296542673,-11.377918638,-11.4463150442,-11.4985331204,-11.487992206,-11.3599167865,-11.0547711159,-10.512876793,-9.67985948248,-8.51242255951,-6.98384941334,-5.08860900004,-2.84548814226,-0.298795493558,2.48263759694,5.40871617761,8.37342752375,11.2618839806,13.9584931605,16.3555605142,18.3615702586,19.908402196,20.9568206659,21.4997075475,21.5626894114,21.2020139506,20.499747878,19.5565839492,18.4827456642,17.3876516625,16.3691351061,15.5030943208,14.8344690444,14.3703843461,14.0761791783,13.8748425187,13.6501277459,13.253321818,12.5133316193,11.2494412986,9.28582037589,6.46665269101,2.67063858559,-2.17638178605,-8.09181734734,-15.0306232296,-22.8840675252,-31.4831328625,-40.6063057385,-49.9911259676,-59.3485619835,-68.3790752148,-76.7891524584,-84.3071165612,-90.6971560954,-95.7707180175,-99.3946542587,-101.495777055,-102.061737899,-101.13838721,-98.8239870579,-95.2608307778,-90.6249648093,-85.1148025607,-78.9394599574,-72.3076212889,-65.4176593877,-58.4495900092,-51.5592484549,-44.8748561904,-38.4959201776,-32.4942025917,-26.9163358599,-21.7875546864,-17.1159823565,-12.8969431066,-9.11686578434,-5.75647812914,-2.79314251685,-0.202329267127,2.04165698669,3.96550145117,5.59701974907,6.96538411062,8.10124121144,9.03658737439,9.8043371341,10.4375900411,10.9686582781,11.4279580613,11.8428886596,12.2368249437,12.6283353378,13.0307107559,13.4518560746,13.8945582874,14.3571082667,14.8342188559,15.3181533172,15.7999575597,16.2706794281,16.7224602219,17.1493976066,17.5481038432,17.9179165409,18.2607579669,18.5806793392,18.8831634332,19.1742868037,19.4598573778,19.7446417421,20.0317797136,20.3224550203,20.6158550206,20.9094146935,21.1993055914,21.481103093,21.7505478923,22.0043114809,22.2406801533,22.4600860465,22.665433912,22.8621948441,23.0582589626,23.2635548456,23.4894531105,23.7479762834,24.0508404526,24.4083604688,24.8282631471,25.3144732886,25.8659634852,26.4757855069,27.1304211807,27.8095958665,28.4866809377,29.1297691971,29.7034396625,30.1711418803,30.4980365108,30.6540438572,30.6167916254,30.374131075,29.9259145591,29.2847970114,28.4759305915,27.5355498197,26.5085746948,25.4454721152,24.3986954724,23.4190583032,22.552387156,21.8367454023,21.3004341115,20.9608729994,20.824359907,20.886616044,21.1339577964,21.5449007116,22.0919979468,22.7437391284,23.4663775831,24.2256037971,24.9880303503,25.7224898561,26.4011672657,27.0005899158,27.5024853867,27.8944942029,28.1706993838,28.3319160951,28.3856788369,28.3458738927,28.2319901061,28.0679968166,27.880897352,27.6990430939,27.5503213086,27.460345963,27.4507828103,27.5379283898,27.731639703,28.034681373,28.4425245964,28.9436008163,29.5199850588,30.1484603718,30.8018960067,31.4508575163,32.0653563212,32.6166393926,33.0789168817,33.4309273888,33.6572476089,33.7492656912,33.7057558275,33.53301462,33.244546015,32.860308878,32.4055677074,31.9094112033,31.4030244579,30.9178172731,30.4835222599,30.1263808928,29.8675331826,29.7217171842,29.6963682977,29.7911851966,29.9981994051,30.3023502965,30.6825293593,31.1130206993,31.5652327998,32.0095930085,32.4174638172,32.7629404739,33.0244030047,33.1857208114,33.2370414558,33.1751327775,33.0032846827,32.7308100501,32.3722105639,31.9460912387,31.473916092,30.9786968592,30.4836979287,30.0112258963,29.5815540033,29.2120130524,28.9162638965,28.7037545496,28.5793587321,28.5431922631,28.590607842,28.7123750351,28.8950577182,29.1216027075,29.3721483165,29.6250486255,29.8580881548,30.049833965,30.1810417668,30.2360053609,30.2037216246,30.0787424527,29.8616038656,29.558760035,29.1820011163,28.747390629,28.273812278,27.7812604089,27.2890376024,26.814034088,26.3692554806,25.9627385803,25.596952609,25.2687304759,24.9697183491,24.6872792383,24.4057438199,24.1078739315,23.7763933729,23.3954468547,22.9518686786,22.4361734848,21.8432163668,21.1725029922,20.428157642,19.6185763889,18.7558046658,17.8546854481,16.931828546,16.0044549224,15.089173715,14.2007543984,13.3509621901,12.5475305042,11.7933480667,11.0859374847,10.4172935533,9.774131201,9.13856435748,8.4892002441,7.8025927185,7.05495856071,6.22402726831,5.29087266015,4.24156672441,3.06850432632,1.7712712706,0.356965481774,-1.16007212562,-2.75910873651,-4.41439225899,-6.09693737947,-7.77657851035,-9.42411854068,-11.0133950335,-12.5230963247,-13.9381863671,-15.250834218,-16.4607864674,-17.5751646852,-18.6077127881,-19.5775597121,-20.5075992212,-21.4226183737,-22.3473256293,-23.3044357514,-24.3129601331,-25.386828708,-26.5339358832,-27.7556618598,-29.0468768245,-30.3963934784,-31.7877975273,-33.200559487,-34.6113168908,-35.9952151517,-37.3272077721,-38.583239612,-39.7412654867,-40.7820847566,-41.6899961998,-42.4532934392,-43.0646280393,-43.5212647466,-43.8252421974,-43.9834353434,-44.0074968997,-43.9136392041,-43.7222098754,-43.4570183404,-43.1443873499,-42.8119328462,-42.487112902,-42.1956258383,-41.9597722878,-41.796919719,-41.7182159206,-41.7276874461,-41.8218302703,-41.9897563947,-42.2139077838,-42.4712944854,-42.7351631947,-42.9769610144,-43.1684310407,-43.2836647295,-43.3009419238,-43.2042118086,-42.9841037411,-42.6384013791,-42.1719618096,-41.5961087272,-40.9275711795,-40.187073852,-39.397708657,-38.5832284415,-37.766400988,-36.9675461486,-36.2033538876,-35.4860502501,-34.8229458147,-34.2163703105,-33.6639702387,-33.1593249732,-32.6928210354,-32.252712941,-31.8262906672,-31.4010676319,-30.965899899,-30.5119491165,-30.0334103669,-29.5279423813,-28.9967608166,-28.4443839713,-27.8780521419,-27.3068737669,-26.7407799211,-26.189389811,-25.6609005843,-25.1611133277,-24.6926936422,-24.2547411794,-23.84271063,-23.4486902563,-23.0620070864,-22.6700945425,-22.259532701,-21.8171571105,-21.3311313397,-20.7918914288,-20.1928951074,-19.5311406668,-18.8074535708,-18.0265664479,-17.1970343499,-16.3310292175,-15.4440461676,-14.5545337151,-13.6834368407,-12.8536228164,-12.0891504516,-11.4143470223,-10.8526740782,-10.4253919823,-10.1500701587,-10.0390308719,-10.0978529668,-10.3240917536,-10.7063855705,-11.2241129099,-11.8477329142,-12.5398866788,-13.25726163,-13.9531347797,-14.5804240859,-15.0950024687,-15.4589773558,-15.6436188219,-15.6316369316
