5,96.9735002119,97.2919123115,97.528711119,97.6886476736,97.7790515395,97.8106604766,97.79806908,97.7595937626,97.7164680953,97.6914200597,97.706810924,97.7826067364,97.9344901463,98.1723983988,98.4997021048,98.9131368795,99.4034870667,99.95691604,100.556754516,101.185505283,101.826803706,102.467088558,103.096783859,103.710862872,104.308750936,104.893613344,105.471156092,106.048129665,106.630759831,107.223330152,107.827109166,108.43975716,109.055272354,109.664455612,110.25579898,110.816647976,111.334459669,111.797980892,112.198199653,112.528968496,112.787250971,112.972993775,113.088673344,113.138604554,113.128128107,113.062808099,112.947767375,112.787262609,112.584555036,112.342073119,112.061801802,111.745782422,111.396579796,111.017575182,110.61297607,110.187489137,109.745669213,109.291020703,108.824976054,108.345901423,107.848281865,107.32222158,106.753365937,106.123317504,105.410582099,104.592042816,103.644916971,102.549098443,101.289724844,99.8597402456,98.2621624075,96.5117264998,94.6355833691,92.6727919464,90.672463702,88.6905802342,86.7856898883,85.0138660422,83.4234484323,82.050165276,80.9132331477,80.0129499268,79.3301411981,78.8276102754,78.4535033697,78.14626654,77.8406724218,77.4742594398,76.9934717379,76.3588201346,75.5484973969,74.56005979,73.4100087415,72.1313444307,70.7693886174,69.3763608362,68.0053199153,66.7041395727,65.5101695293,64.4461475176,63.5177849859,62.713267251,62.0047067353,61.3513855019,60.7044393407,60.012486971,59.2276085275,58.3110375713,57.2379558324,56.0008693132,54.611191178,53.0988469563,51.5099307258,49.9026526153,48.3420026619,46.8936911832,45.6179953072,44.5641379041,43.7657512795,43.2378452196,42.9755265088,42.9545283422,43.1334267021,43.457266581,43.8622079263,44.2807367721,44.6469722523,44.9016303898,44.996271692,44.896550194,44.5842845901,44.0582760525,43.3338923633,42.4415167904,41.4240192461,40.3334476257,39.227163456,38.1636642791,37.1983505314,36.3795082521,35.7447868998,35.3184457152,35.1096127084,35.111739942,35.3033454629,35.6500122206,36.1074819666,36.6255573105,37.1524284122,37.6389886159,38.042704645,38.3306622549,38.4815103249,38.486161982,38.3472623231,38.077577059,37.6975729947,37.2325321196,36.709557633,36.1547951983,35.5911190056,35.0364390508,34.502693493,33.9955136352,33.514496587,33.0539912654,32.6042907548,32.1531202678,31.6873086963,31.1945295409,30.6649931107,30.0929674994,29.4780034432,28.8257410799,28.1481888058,27.4633899673,26.7944350487,26.1678356578,25.6113482771,25.1514124459,24.8104381668,24.6042275187,24.5398334248,24.6141362704,24.8133551334,25.11361055,25.4825321187,25.8817734711,26.270177906,26.607248433,26.8565308043,26.9885259126,26.982809082,26.8291398327,26.5274804948,26.0869848155,25.5241470238,24.8603995044,24.119500757,23.3250589118,22.498490986,21.6576324952,20.8161001482,19.983390433,19.1655886117,18.3664836586,17.5888470618,16.8356408531,16.110967415,15.4206476749,14.7723980057,14.1756519736,13.6411270579,13.1802609472,12.804636198,12.5254806501,12.3532821085,12.2974997209,12.3663033661,12.56623913,12.9017143489,13.3742250842,13.9813100639,14.7152983325,15.5620073828,16.4996254051,17.4980566325,18.5190078082,19.5170390612,20.4416954982,21.2406876101,21.8639190084,22.2679958199,22.4207229062,22.3050249233,21.9217436119,21.2908621091,20.4508828701,19.4563142127,18.3734674602,17.2749933297,16.2337558563,15.3167269658,14.5795715598,14.0624857482,13.7876703614,13.7586010724,13.9610333234,14.3654892865,14.9308392057,15.6085203851,16.3469301365,17.0955714941,17.8086065061,18.4475670467,18.983076806,19.3955431921,19.6748782869,19.8193970255,19.8341106288,19.7286762653,19.5152743685,19.206661843,18.814597055,18.3487607015,17.8162182608,17.2213982355,16.5665070528,15.852272507,15.0789021525,14.2471532178,13.359424484,12.4207872335,11.4398668173,10.429471899,9.4068550637,8.39348879936,7.41426513195,6.49607997835,5.66584157285,4.94803543688,4.36206964606,3.91969462642,3.62282462079,3.46207291552,3.41624864788,3.4529581493,3.53032508349,3.59971201344,3.60921160742,3.50759373468,3.24835336012,2.7935040813,2.11679765706,1.20611112072,0.0648188987001,-1.28795202448,-2.81820710822,-4.47905903622,-6.21367427498,-7.95901157885,-9.65011642283,-11.224685751,-12.6275775517,-13.8149156631,-14.7574403839,-15.4427885319,-15.8764577771,-16.081318046,-16.0956685231,-15.9699864475,-15.7626536132,-15.5350580929,-15.3465361934,-15.2496343153,-15.2861318851,-15.4841814405,-15.8568014149,-16.4018148544,-17.1031782094,-17.933503704,-18.8574607363,-19.8356581568,-20.8285688173,-21.8000653865,-22.7201927626,-23.5669035113,-24.3266196581,-24.9936423668,-25.5685905109,-26.056186145,-26.4627958559,-26.7941638586,-27.053727928,-27.2417985978,-27.3557240321,-27.3909849227,-27.342996192,-27.2092633329,-26.9914723553,-26.6970952116,-26.3401675198,-25.9410313062,-25.5250115191,-25.1201834033,-24.7545570993,-24.4531257084,-24.2352697857,-24.1129731631,-24.0901860722,-24.1634909656,-24.324014856,-24.5603251329,-24.8618774533,-25.222480254,-25.6432147207,-26.1343031302,-26.7155426196,-27.4150975149,-28.26664807,-29.3051017273,-30.5612607922,-32.055987004,-33.7944930977,-35.7614142349,-37.9172647509,-40.1967712638,-42.5094017024,-44.7421970393,-46.7647787013,-48.4361723901,-49.612881439,-50.1574818331,-49.9469162361,-48.8796516186,-46.8809444212,-43.905630222,-39.9381122813,-34.9895434788,-29.0925456822,-22.2941473106,-14.6478976389,-6.20629193461,2.98531836479,12.8922683543,23.4907741435,34.7643637842,46.6965980843,59.2606329746,72.4066447592,86.048525365,100.051509832,114.222488623,128.304663525,141.977923716,154.86585867,166.549713301,176.588872562,184.546702607,190.01985765,192.66858175,192.245186854,188.617846071,181.787140203,171.893421147,159.213940559,144.149724797,127.203221516,108.948662721,89.9977694996,70.9637913595,52.4269016735,34.9036801546,18.8228611729,4.50879698448,-7.82672587708,-18.0844746063,-26.2704166798,-32.4824128629,-36.892677856,-39.7278528242,-41.2484631727,-41.7293075454,-41.4419913781,-40.6404366619,-39.5498211618,-38.3590661604,-37.2167270938,-36.2299546606,-35.4660791547,-34.956312675,-34.7010443844,-34.6762075738,-34.8402141698,-35.140979104,-35.5225950005,-35.9312701413,-36.3202120698,-36.6532254958,-36.906893325,-37.0713174942,-37.1495035423,-37.1555706184,-37.1120492062,-37.0465863278,-36.9884081819,-36.9648902688,-36.9985539563,-37.1047477369,-37.2901866855,-37.5524247308,-37.8802343418,-38.2547807659,-38.6514143249,-39.0418704391,-39.3966620344,-39.6874660114,-39.8893353724,-39.9826035175,-39.9543822531,-39.799588094,-39.5214617329,-39.1315724893,-38.6493221835,-38.1009805205,-37.5182972024,-36.9367465742,-36.3934713368,-35.9250047775,-35.5648667557,-35.3411467459,-35.2742063933,-35.3746526799,-35.6417485237,-36.0624363365,-36.6111454846,-37.2505288101,-37.9332191684,-38.6046118365,-39.2065685821,-39.6818188018,-39.9787220323,-40.0559731534,-39.886790236,-39.462131946,-38.7925476683,-37.9083663703,-36.8580740874,-35.7049053183,-34.5218656467,-33.3855909927,-32.369609064,-31.5376769351,-30.9379049933,-30.5983283931,-30.5244500026,-30.6990649463,-31.0844119912,-31.6264176163,-32.2605451843,-32.9185712145,-33.5355102109,-34.0559109259,-34.4388463527,-34.6610987609,-34.718271381,-34.6238072637,-34.4061319468,-34.1043335111,-33.762932267,-33.4263616083,-33.1337789098,-32.9147563202,-32.7862783873,-32.7513135162,-32.7990477804,-32.9066903473,-33.0425956115,-33.1703115542,-33.2530682075,-33.2581737487,-33.1607957926,-32.9466754272,-32.6134491609,-32.1704289362,-31.6368932835,-31.0391460542,-30.4067714353,-29.7686260224,-29.149140873,-28.5654528453,-28.025754314,-27.5290652866,-27.0664215912,-26.6232687241,-26.1826817608,-25.7289196674,-25.2507811854,-24.7442631574,-24.2141247428,-23.6741175729,-23.1458308237,-22.6562950695,-22.2346615379,-21.9083984077,-21.6995047174,-21.6212279251,-21.6756882352,-21.8526779486,-22.1297418849,-22.4734832199,-22.8419033406,-23.1874923883,-23.460745562,-23.6137836573,-23.6037908508,-23.3960320359,-22.9662631376,-22.3023947281,-21.4053129675,-20.2888077981,-18.9786117402,-17.5106147714,-15.9283869496,-14.2802013849,-12.6157952366,-10.9831273129,-9.42538398314,-7.97845221301,-6.66902540242,-5.51344236973,-4.5172910462,-3.67574461309,-2.97454590039,-2.39152029361,-1.89847939075,-1.46337544393,-1.05257635999,-0.633147780699,-0.17504705909,0.346851616187,0.950975292264,1.64759081635,2.43775095168,3.3127454415,4.25415682528,5.23460679523,6.21924263402,7.16795395582,8.03823270851,8.78850452448,9.38168041002,9.78861821841,9.9911554082,9.9843867488,9.77791571537,9.39590170951,8.87584542532,8.26618594468,7.62290867138,7.00546726577,6.47239238506,6.07698686377,5.86348863494,5.86402354161,6.09658035247,6.56413317832,7.25492551961,8.14382629489,9.19457906146,10.3626964548,11.5987068664,12.851443621,14.0710817567,15.2116747457,16.2330193919,17.1017726018,17.7918453223,18.2841913703,18.5661780233,18.6307608684,18.4756828624,18.1028782096,17.5181925112,16.7314432618,15.7567536096,14.6130124811,13.3242590147,11.9197685337,10.4336360677,8.90371152444,7.36983230443,5.87141306025,4.44457196191,3.11907844356,1.91547937044,0.842783640063,-0.102947991546,-0.938848647056,-1.69419851408,-2.40811409741,-3.12616234251,-3.89622899101,-4.76407102147,-5.76902873702,-6.94035701811,-8.29455925323,-9.83398200007,-11.5467713997,-13.4081264001,-15.3826328939,-17.4273484544,-19.4952450558,-21.5386140913,-23.5120917462,-25.3750616816,-27.0933165294,-28.6399856254,-29.9958394468,-31.1491429236,-32.0952422124,-32.8360372685,-33.3794311142,-33.7387775315,-33.9322928972,-33.9823695855,-33.914732671,-33.7574133806,-33.5395591023,-33.2901447971,-33.036680638,-32.8040183433,-32.6133446901,-32.4814221295,-32.4201033635,-32.4361190032,-32.5311217657,-32.7019688952,-32.9412329463,-33.2379415591,-33.5785492082,-33.948129448,-34.3317415079,-34.7158747751,-35.0898214065,-35.4467887672,-35.7845566021,-36.1055188951,-36.4160265414,-36.7250529384,-37.0423218522,-37.3761439795,-37.7312849517,-38.1072166957,-38.4970765571,-38.8875738193,-39.2599504627,-39.5919408291,-39.860508966,-40.0450014117,-40.1302630808,-40.1092428206,-39.9846693708,-39.7695009644,-39.4860240201,-39.1636714092,-38.8358181996,-38.5359638563,-38.2938021218,-38.1317003376,-38.0620570927,-38.0858900842,-38.1928430955,-38.3626156609,-38.5676363372,-38.7766436139,-38.9587261169,-39.0873188147,-39.1436600488,-39.1192827847,-39.0172319575,-38.8518517893,-38.647153258,-38.433933523,-38.2459595871,-38.1156353651,-38.0696365247,-38.1250164721,-38.2862573097,-38.5436606192,-38.8733461181,-39.2389580078,-39.5949825132,-39.8913765756,-40.0790236754,-40.1153970429,-39.9697480055,-39.6271633502,-39.0909524672,-38.3830203552,-37.5421311685,-36.6202345941,-35.6772761075,-34.7751068701,-33.9712225955,-33.3130777727,-32.8336404199,-32.5486848801,-32.456089698,-32.5371463851,-32.7596289536,-33.0821586716,-33.4592529186,-33.8463903357,-34.2044622473,-34.5031038534,-34.7225865127,-34.8541741539,-34.8990681673,-34.8662534108,-34.7696873027,-34.6253286068,-34.4484783291,-34.2518094984,-34.044313355,-33.831212825,-33.6147206589,-33.3953785959,-33.1736280608,-32.9512442946,-32.7323142292,-32.5235418543,-32.3338026777,-32.173016356,-32.0505390432,-31.9733733277,-31.9445387947,-31.9619335521,-32.0179490084,-32.0999877967,-32.1918951581,-32.2761675085,-32.3366686412,-32.3614823947,-32.3454755147,-32.2921460588,-32.2143954418,-32.1339831645,-32.0795907395,-32.0836148015,-32.1780022333,-32.3896039841,-32.7356334836,-33.2198508314,-33.8300450899,-34.5372549995,-35.2969662425,-36.0522755294,-36.7387521318,-37.2904944103
5,2.43775095168,3.3127454415,4.25415682528,5.23460679523,6.21924263402,7.16795395582,8.03823270851,8.78850452448,9.38168041002,9.78861821841,9.9911554082,9.9843867488,9.77791571537,9.39590170951,8.87584542532,8.26618594468,7.62290867138,7.00546726577,6.47239238506,6.07698686377,5.86348863494,5.86402354161,6.09658035247,6.56413317832,7.25492551961,8.14382629489,9.19457906146,10.3626964548,11.5987068664,12.851443621,14.0710817567,15.2116747457,16.2330193919,17.1017726018,17.7918453223,18.2841913703,18.5661780233,18.6307608684,18.4756828624,18.1028782096,17.5181925112,16.7314432618,15.7567536096,14.6130124811,13.3242590147,11.9197685337,10.4336360677,8.90371152444,7.36983230443,5.87141306025,4.44457196191,3.11907844356,1.91547937044,0.842783640063,-0.102947991546,-0.938848647056,-1.69419851408,-2.40811409741,-3.12616234251,-3.89622899101,-4.76407102147,-5.76902873702,-6.94035701811,-8.29455925323,-9.83398200007,-11.5467713997,-13.4081264001,-15.3826328939,-17.4273484544,-19.4952450558,-21.5386140913,-23.5120917462,-25.3750616816,-27.0933165294,-28.6399856254,-29.9958394468,-31.1491429236,-32.0952422124,-32.8360372685,-33.3794311142,-33.7387775315,-33.9322928972,-33.9823695855,-33.914732671,-33.7574133806,-33.5395591023,-33.2901447971,-33.036680638,-32.8040183433,-32.6133446901,-32.4814221295,-32.4201033635,-32.4361190032,-32.5311217657,-32.7019688952,-32.9412329463,-33.2379415591,-33.5785492082,-33.948129448,-34.3317415079,-34.7158747751,-35.0898214065,-35.4467887672,-35.7845566021,-36.1055188951,-36.4160265414,-36.7250529384,-37.0423218522,-37.3761439795,-37.7312849517,-38.1072166957,-38.4970765571,-38.8875738193,-39.2599504627,-39.5919408291,-39.860508966,-40.0450014117,-40.1302630808,-40.1092428206,-39.9846693708,-39.7695009644,-39.4860240201,-39.1636714092,-38.8358181996,-38.5359638563,-38.2938021218,-38.1317003376,-38.0620570927,-38.0858900842,-38.1928430955,-38.3626156609,-38.5676363372,-38.7766436139,-38.9587261169,-39.0873188147,-39.1436600488,-39.1192827847,-39.0172319575,-38.8518517893,-38.647153258,-38.433933523,-38.2459595871,-38.1156353651,-38.0696365247,-38.1250164721,-38.2862573097,-38.5436606192,-38.8733461181,-39.2389580078,-39.5949825132,-39.8913765756,-40.0790236754,-40.1153970429,-39.9697480055,-39.6271633502,-39.0909524672,-38.3830203552,-37.5421311685,-36.6202345941,-35.6772761075,-34.7751068701,-33.9712225955,-33.3130777727,-32.8336404199,-32.5486848801,-32.456089698,-32.5371463851,-32.7596289536,-33.0821586716,-33.4592529186,-33.8463903357,-34.2044622473,-34.5031038534,-34.7225865127,-34.8541741539,-34.8990681673,-34.8662534108,-34.7696873027,-34.6253286068,-34.4484783291,-34.2518094984,-34.044313355,-33.831212825,-33.6147206589,-33.3953785959,-33.1736280608,-32.9512442946,-32.7323142292,-32.5235418543,-32.3338026777,-32.173016356,-32.0505390432,-31.9733733277,-31.9445387947,-31.9619335521,-32.0179490084,-32.0999877967,-32.1918951581,-32.2761675085,-32.3366686412,-32.3614823947,-32.3454755147,-32.2921460588,-32.2143954418,-32.1339831645,-32.0795907395,-32.0836148015,-32.1780022333,-32.3896039841,-32.7356334836,-33.2198508314,-33.8300450899,-34.5372549995,-35.2969662425,-36.0522755294,-36.7387521318,-37.2904944103,-37.6467083686,-37.7580537757,-37.5920229458,-37.1367336721,-36.4027120681,-35.4224832268,-34.248042399,-32.9465122549,-31.5944738353,-30.2715701703,-29.0540137278,-28.0085858287,-27.1876134667,-26.6252700277,-26.3353967665,-26.3109032317,-26.5246906678,-26.9319569885,-27.4736815955,-28.0810448089,-28.6805004648,-29.1991841979,-29.5703026521,-29.7381167763,-29.6621188731,-29.3200244315,-28.7092690859,-27.8468230005,-26.767302566,-25.5195527544,-24.1620625201,-22.7577253062,-21.3685362893,-20.0508098893,-18.8514061697,-17.8052919281,-16.9345627253,-16.2488514469,-15.7468796526,-15.4187932012,-15.2488743,-15.2182365144,-15.3071757571,-15.496951199,-15.7708857532,-16.1147880264,-16.5167920316,-16.9667783334,-17.4555767316,-17.974156562,-18.5129896124,-19.0617271063,-19.6092710778,-20.1442475902,-20.655813161,-21.1346581996,-21.5740252403,-21.9705457111,-22.3247212791,-22.6409312108,-22.9269254983,-23.1928500649,-23.4499292142,-23.7089876051,-23.9790200967,-24.2660097367,-24.5721550045,-24.89560495,-25.2307257859,-25.5688467233,-25.899368222,-26.2110727172,-26.4934632217,-26.7379698715,-26.9389022636,-27.0940751728,-27.2050852026,-27.2772573247,-27.3193082604,-27.3427870507,-27.361353769,-27.3899493891,-27.4438988007,-27.5379799608,-27.6854883418,-27.8973279798,-28.1811673721,-28.5407079245,-28.9751216869,-29.4787204014,-30.0409158784,-30.6465192336,-31.2764018339,-31.9085049528,-32.5191427446,-33.0845019161,-33.5822103576,-33.9928333524,-34.3011628129,-34.4971897613,-34.5766862828,-34.5413627479,-34.3986031662,-34.1608127194,-33.8444359636,-33.4687229262,-33.0543354019,-32.6218987469,-32.1906152692,-31.7770615362,-31.3942893053,-31.0513333046,-30.7531946688,-30.5013155123,-30.2944919054,-30.1300991632,-30.0054391334,-29.9189795809,-29.8712531665,-29.8652233869,-29.9060037853,-29.9999227353,-30.1530409899,-30.3693325927,-30.648813086,-30.9859285985,-31.368499139,-31.7774420397,-32.1873988477,-32.5682694991,-32.8875418348,-33.1132100869,-33.2170141829,-33.1777059859,-32.9840549921,-32.6373353221,-32.1530767157,-31.5619045179,-30.9093315498,-30.2543987757,-29.6670984588,-29.22456353,-29.0060803888,-29.0870844963,-29.532425248,-30.3893249377,-31.6805840652,-33.3986757768,-35.50140114,-37.9097259597,-40.5082813274,-43.148790035,-45.6563996014,-47.8385921204,-49.4960405317,-50.4345299962,-50.4768965574,-49.4738787036,-47.3128441749,-43.9235434048,-39.2803362524,-33.4007101853,-26.3403152701,-18.1851377941,-9.04177348726,0.972997896636,11.7420233329,23.1556950256,35.1168859079,47.5421382912,60.3587821872,73.4981718405,86.8857579941,100.429197583,114.006080599,127.453072267,140.558287599,153.058514224,164.642481202,174.960765983,183.642195217,190.31580707,194.636698745,196.313482807,195.134709265,190.991540192,183.894213267,173.980377465,161.514162021,146.875750639,130.542162864,113.060783132,95.0178336392,77.0043984814,59.5827464235,43.2555740847,28.4404327244,15.4510615314,4.48669098262,-4.37033094451,-11.1489321934,-15.9766911843,-19.0616474121,-20.6703369681,-21.1040003699,-20.674894931,-19.6844723501,-18.4048828765,-17.0648756919,-15.8407196659,-14.8523088041,-14.1641806366,-13.7907979013,-13.7051523622,-13.8495641491,-14.1474800217,-14.5151174549,-14.8719453547,-15.1492141912,-15.296019686,-15.2826735004,-15.1014312332,-14.7648666499,-14.3023626882,-13.7553040336,-13.1716009871,-12.6001556453,-12.0858105515,-11.6652114004,-11.3638837878,-11.1946825664,-11.1576321628,-11.2410465041,-11.4237060481,-11.6777843375,-11.9721643552,-12.2757707908,-12.5605695751,-12.803947213,-12.9902712614,-13.1115379908,-13.1671207452,-13.1627303236,-13.1087767599,-13.018373491,-12.9052471081,-12.7818087624,-12.657609241,-12.5383429885,-12.4254930145,-12.3166265455,-12.2062696142,-12.0872172219,-11.9520831375,-11.7948665121,-11.612314649,-11.4048919087,-11.1772193443,-10.9379205096,-10.6988861375,-10.4740437206,-10.2777784318,-10.1231930361,-10.0204133781,-9.97514227009,-9.98763964463,-10.052263611,-10.1576495817,-10.2875376625,-10.422187135,-10.5402466375,-10.620886135,-10.6459500164,-10.601868721,-10.4810772293,-10.28273679,-10.0126392743,-9.68228206819,-9.3072197171,-8.90490762087,-8.49233437724,-8.08377835811,-7.68901284354,-7.31222257349,-6.95179117284,-6.60098915207,-6.2494566098,-5.8852551997,-5.49717959064,-5.07698277187,-4.62118700508,-4.13221865878,-3.61870799348,-3.09491604779,-2.57937015506,-2.09288948741,-1.65624977947,-1.28776616489,-1.00106578045,-0.803284054038,-0.693860520296,-0.664042323408,-0.69713490624,-0.769475101174,-0.852044553941,-0.912592533845,-0.918098264277,-0.837376155083,-0.643615180815,-0.316647887218,0.155234680143,0.774070210336,1.53171564511,2.41008821332,3.38214796398,4.41355832628,5.46491214683,6.49436996269,7.46052738312,8.32531103957,9.05669838497,9.63106554201,10.034988567,10.2663556118,10.3346890857,10.2606267822,10.0745679518,9.8145528831,9.5235095145,9.24606271283,9.02515414011,8.89875532684,8.89696653053,9.03977438369,9.33569120032,9.78142138801,10.3626029423,11.0555648405,11.8299365302,12.6518559855,13.4874584439,14.3062957786,15.0843389963,15.8062522367,16.4666920073,17.0704751749,17.6315678517,18.1709682724,18.7136816325,19.2851022908,19.9072141248,20.5950765272,21.3540658461,22.1782796816,23.0503839358,23.9430023876,24.8215410367,25.6481378684,26.3862666667,27.0054270867,27.485335841,27.8190952583,28.0149435675,28.0963656105,28.1005384972,28.0752787515,28.0748235287,28.1549014368,28.3676173209,28.7566848239,29.3534906268,30.174370222,31.2193281662,32.4722638544,33.9025902209,35.4679826005,37.117890451,38.7974000581,40.4510546904,42.0263106448,43.476413558,44.7625939327,45.8555791695,46.7364835599,47.3971610887,47.8400943349,48.0778613176,48.1321893863,48.0325875189,47.8145554652,47.5174014886,47.1817532317,46.8469057446,46.5482018,46.3146685743,46.1671327649,46.1170008087,46.1658259442,46.3056984671,46.5204025156,46.7871966925,47.0790102521,47.3668107942,47.6218969004,47.8178974644,47.9323115874,47.947489281,47.8510238892,47.6355933591,47.298342674,46.8399396202,46.2634585494,45.5732518327,44.7739578991,43.8697707263,42.8640615812,41.7594028097,40.5579981007,39.2624756933,37.8769523367,36.4082297524,34.8669474039,33.2684929296,31.6334725874,29.9875748802,28.360723393,26.78550526,25.2949674623,23.9199763987,22.6864174318,21.6125544555,20.7068666015,19.9666312475,19.3774396333,18.9137292956,18.5403125499,18.2147851545,17.8906212518,17.5207020377,17.0609865291,16.4740140147,15.7319316162,14.818770006,13.7317477405,12.4814687806,11.0909828543,9.59379360154,8.03101014772,6.44792777935,4.89037901149,3.40120973458,2.01720622991,0.766734545591,-0.33173482263,-1.27014431993,-2.0504362404,-2.68332568009,-3.18644528727,-3.58209096541,-3.89481303569,-4.14908618845,-4.3672581469,-4.56792720073,-4.76483938543,-4.96633438578,-5.17531253435,-5.38964995006,-5.6029594368,-5.80558317024,-5.985708373,-6.13051508666,-6.22728951416,-6.26446012353,-6.23253074181,-6.12489205435,-5.93849087832,-5.67432927487,-5.33775873092,-4.93853372477,-4.49059735445,-4.01158950922,-3.52209208673,-3.04465043519,-2.60262970421,-2.21897537822,-1.91494864542,-1.70890221119,-1.61515490562,-1.64301761827,-1.7960204519,-2.07139100496,-2.45983412305,-2.94566102986,-3.50730681724,-4.1182566567,-4.74837112473,-5.36556060886,-5.9377120329,-6.43472557136,-6.83048450618,-7.10456813253,-7.24353294084,-7.24163237558,-7.10091406705,-6.83071327416,-6.44663715293,-5.96919187519,-5.42223325439,-4.83141784203,-4.22279928984,-3.62166375323,-3.05164066503,-2.53407347852,-2.08759838058,-1.72786242459,-1.46731548828,-1.31502735799,-1.27650387395,-1.353497201,-1.54382141997,-1.84119630188,-2.23515186394,-2.71103590126,-3.25017542318,-3.83024749688,-4.42591082756,-5.00973252298,-5.55341337576,-6.02927178027,-6.41189724747,-6.67983886413,-6.81716285851,-6.8147062707,-6.6708758734,-6.39189152879,-5.99144228363,-5.48979755565,-4.91247961262,-4.28864570164,-3.64934360881,-3.02579463953,-2.44782905517,-1.94255880793,-1.53332888138,-1.23894869429,-1.07317452398,-1.04439648327,-1.15548070364,-1.40372840461,-1.78093598411,-2.27356959449,-2.86309693002,-3.52653935717,-4.23731036977,-4.96638581991,-5.68380703319,-6.36045594071,-6.96997385756,-7.49063805583,-7.90697799343,-8.21091655115,-8.40226368811,-8.48846472212,-8.48360029777,-8.40673380695,-8.27978838629,-8.12519644554,-7.9635917645,-7.81180504637,-7.68138132974,-7.57776912475,-7.50024689294,-7.44256429897,-7.39419495759,-7.34203382433,-7.27233271234,-7.17265471812,-7.03364150249,-6.85042152094,-6.62353500127,-6.35930457464,-6.0696321682,-5.77124915531
5,46.1658259442,46.3056984671,46.5204025156,46.7871966925,47.0790102521,47.3668107942,47.6218969004,47.8178974644,47.9323115874,47.947489281,47.8510238892,47.6355933591,47.298342674,46.8399396202,46.2634585494,45.5732518327,44.7739578991,43.8697707263,42.8640615812,41.7594028097,40.5579981007,39.2624756933,37.8769523367,36.4082297524,34.8669474039,33.2684929296,31.6334725874,29.9875748802,28.360723393,26.78550526,25.2949674623,23.9199763987,22.6864174318,21.6125544555,20.7068666015,19.9666312475,19.3774396333,18.9137292956,18.5403125499,18.2147851545,17.8906212518,17.5207020377,17.0609865291,16.4740140147,15.7319316162,14.818770006,13.7317477405,12.4814687806,11.0909828543,9.59379360154,8.03101014772,6.44792777935,4.89037901149,3.40120973458,2.01720622991,0.766734545591,-0.33173482263,-1.27014431993,-2.0504362404,-2.68332568009,-3.18644528727,-3.58209096541,-3.89481303569,-4.14908618845,-4.3672581469,-4.56792720073,-4.76483938543,-4.96633438578,-5.17531253435,-5.38964995006,-5.6029594368,-5.80558317024,-5.985708373,-6.13051508666,-6.22728951416,-6.26446012353,-6.23253074181,-6.12489205435,-5.93849087832,-5.67432927487,-5.33775873092,-4.93853372477,-4.49059735445,-4.01158950922,-3.52209208673,-3.04465043519,-2.60262970421,-2.21897537822,-1.91494864542,-1.70890221119,-1.61515490562,-1.64301761827,-1.7960204519,-2.07139100496,-2.45983412305,-2.94566102986,-3.50730681724,-4.1182566567,-4.74837112473,-5.36556060886,-5.9377120329,-6.43472557136,-6.83048450618,-7.10456813253,-7.24353294084,-7.24163237558,-7.10091406705,-6.83071327416,-6.44663715293,-5.96919187519,-5.42223325439,-4.83141784203,-4.22279928984,-3.62166375323,-3.05164066503,-2.53407347852,-2.08759838058,-1.72786242459,-1.46731548828,-1.31502735799,-1.27650387395,-1.353497201,-1.54382141997,-1.84119630188,-2.23515186394,-2.71103590126,-3.25017542318,-3.83024749688,-4.42591082756,-5.00973252298,-5.55341337576,-6.02927178027,-6.41189724747,-6.67983886413,-6.81716285851,-6.8147062707,-6.6708758734,-6.39189152879,-5.99144228363,-5.48979755565,-4.91247961262,-4.28864570164,-3.64934360881,-3.02579463953,-2.44782905517,-1.94255880793,-1.53332888138,-1.23894869429,-1.07317452398,-1.04439648327,-1.15548070364,-1.40372840461,-1.78093598411,-2.27356959449,-2.86309693002,-3.52653935717,-4.23731036977,-4.96638581991,-5.68380703319,-6.36045594071,-6.96997385756,-7.49063805583,-7.90697799343,-8.21091655115,-8.40226368811,-8.48846472212,-8.48360029777,-8.40673380695,-8.27978838629,-8.12519644554,-7.9635917645,-7.81180504637,-7.68138132974,-7.57776912475,-7.50024689294,-7.44256429897,-7.39419495759,-7.34203382433,-7.27233271234,-7.17265471812,-7.03364150249,-6.85042152094,-6.62353500127,-6.35930457464,-6.0696321682,-5.77124915531,-5.48448691866,-5.2316695139,-5.0352592374,-4.91590840715,-4.89058406559,-4.97093350702,-5.16204479009,-5.46172656124,-5.86038706318,-6.34153750415,-6.88288640873,-7.4579359411,-8.03794409735,-8.59408193618,-9.09959509995,-9.53177548492,-9.87356306926,-10.1146293072,-10.2518400399,-10.2890538191,-10.2362760388,-10.1082545684,-9.92266204456,-9.69805656594,-9.45183994218,-9.19843663171,-8.94789577267,-8.70507499843,-8.46950202288,-8.23593380784,-7.99555040939,-7.73763988802,-7.45156203992,-7.1287328839,-6.76435833372,-6.35867007724,-5.91747909284,-5.45195507863,-4.97764960932,-4.51288943711,-4.07675627498,-3.68692667305,-3.35766238568,-3.09821664518,-2.9118597673,-2.79563850576,-2.74088136051,-2.73436195445,-2.75994875061,-2.80051230744,-2.83983651118,-2.86428841277,-2.86403927722,-2.8336916136,-2.7722461968,-2.68243142361,-2.56950602805,-2.43972536738,-2.29871985368,-2.15005970017,-1.99426335464,-1.82844462573,-1.64669178054,-1.44114651223,-1.20362404402,-0.927512038173,-0.609625999987,-0.251694585702,0.138799398065,0.548597366886,0.959509721467,1.35003855337,1.69756778768,1.98081895423,2.18222277645,2.28985911215,2.29867134962,2.2107604128,2.03469586555,1.78392933443,1.47453663669,1.12262663947,0.74181721385,0.341179119045,-0.0760154230816,-0.512523203626,-0.976282229497,-1.47860064511,-2.03165519701,-2.64568966497,-3.3263619388,-4.07267799817,-4.87587346006,-5.71947001037,-6.58056402354,-7.43222182682,-8.24668570604,-8.9989606551,-9.67027389226,-10.2508911622,-10.7418413074,-11.1552383395,-11.513081528,-11.8446320089,-12.1826758674,-12.5591544731,-13.0007448603,-13.5249899816,-14.1375095751,-14.8306800798,-15.5839795609,-16.365979293,-17.1377560708,-17.857323234,-18.4845526852,-18.9859975898,-19.3390328953,-19.5348086608,-19.5796517718,-19.4947383543,-19.3140681024,-19.0809752233,-18.8435824236,-18.6497232473,-18.5419110604,-18.5529161984,-18.7024313497,-18.9951716306,-19.4205877245,-19.9541885454,-20.5602954658,-21.195902698,-21.8152129916,-22.3743631927,-22.8358523812,-23.1722320888,-23.368704761,-23.4243921863,-23.3521688885,-23.1770961177,-22.9336300401,-22.6619021854,-22.4034687861,-22.1969852772,-22.0742718203,-22.0571897267,-22.1556500031,-22.3669357969,-22.6763591633,-23.059111859,-23.48303248,-23.9119174277,-24.3089633322,-24.6399470398,-24.8758201622,-24.9945050876,-24.9818101502,-24.83151329,-24.5447767325,-24.1291343392,-23.5973286935,-22.9662639701,-22.2562869324,-21.4909211265,-20.6970716078,-19.9056048423,-19.1521066742,-18.4775448519,-17.9285227683,-17.5568148858,-17.4179245026,-17.5684993742,-18.062573756,-18.9467648819,-20.2547207493,-22.0012736234,-24.1768781192,-26.742984192,-29.6289983493,-32.7314114585,-35.9155166989,-39.0199133291,-41.8637080823,-44.2560140375,-46.0070438355,-46.9398421243,-46.9015420823,-45.7729960723,-43.4757399583,-39.9755032726,-35.2818488942,-29.4439704807,-22.5431338318,-14.6826567735,-5.97662630539,3.46128617462,13.5275471024,24.13580591,35.2203303295,46.7352798709,58.6497076102,70.9386453725,83.5710788649,96.4960236719,109.628237795,122.835318307,135.92799469,148.655318284,160.706134568,171.717709756,181.291689461,189.016751267,194.496462153,197.380075547,197.393417816,194.366723858,188.256356242,179.157802232,167.308149438,153.077299779,136.948358395,119.488776725,101.314792207,83.0523749882,65.2981928831,48.5840181958,33.3475512045,19.9118931854,8.47496447146,-0.890855980847,-8.22957776212,-13.6844871035,-17.4752556895,-19.8718050138,-21.1675304207,-21.6542914241,-21.6011574639,-21.2383271491,-20.7469892771,-20.2552394874,-19.8395724945,-19.530988083,-19.3244150023,-19.1899889828,-19.084720399,-18.9632382966,-18.7865709189,-18.5282779901,-18.1776402735,-17.7399906409,-17.2345969369,-16.6907489324,-16.1428404168,-15.6252665234,-15.1678818433,-14.7926043912,-14.5115310686,-14.3266846733,-14.2312745323,-14.2121526535,-14.2530074803,-14.3377702403,-14.4537157683,-14.5938121568,-14.7579964309,-14.953207931,-15.192177502,-15.4911302514,-15.8666964753,-16.3324269205,-16.895365897,-17.5531426868,-18.2919949158,-19.0860386317,-19.8979574473,-20.6811136138,-21.382909455,-21.9490726847,-22.328425935,-22.4776446407,-22.3655133782,-21.9762532982,-21.3115987305,-20.3914318049,-19.2529227762,-17.9482566306,-16.5411435901,-15.1024061649,-13.7050047036,-12.4189043174,-11.3061961517,-10.4168632026,-9.78552496857,-9.42940920192,-9.34768978127,-9.52220742434,-9.91946679503,-10.4936923622,-11.1906383308,-11.9517952588,-12.7186239358,-13.436476179,-14.0579258753,-14.5453194209,-14.8724472988,-15.025323349,-15.0021250528,-14.8123929869,-14.475612793,-14.0193146722,-13.4768300106,-12.8848464865,-12.2809028347,-11.7009607687,-11.1771821609,-10.7360235417,-10.39673835,-10.1703524076,-10.0591517982,-10.0566958596,-10.1483418435,-10.3122426017,-10.5207557778,-10.7421847284,-10.9427602223,-11.0887687955,-11.1487365471,-11.0955814309,-10.9086470837,-10.5755230207,-10.0935398526,-9.47080926738,-8.72666596801,-7.89137273338,-7.00497807193,-6.11527137973,-5.27486003798,-4.53748822577,-3.95381669221,-3.56697354697,-3.4082563258,-3.49340464033,-3.81986166376,-4.36539540908,-5.08835614879,-5.92970952309,-6.81681661126,-7.66874779676,-8.40273591873,-8.94121818888,-9.21880826491,-9.18849877534,-8.82643208272,-8.13469461092,-7.14177801277,-5.90058858192,-4.48414576563,-2.97935795999,-1.47946699621,-0.0758875691891,1.1497786163,2.13280336743,2.83082019176,3.22725608846,3.33242583278,3.18222951707,2.83461403319,2.36415816869,1.85530307883,1.39486260663,1.06450233859,0.933867359759,1.05496613929,1.45828754096,2.15095195821,3.11699441091,4.31966956033,5.70547938099,7.20947426756,8.76128215828,10.2912845142,11.7363816153,13.0448648548,14.1800277299,15.1222843606,15.8697087941,16.4370465665,16.8533721893,17.158666069,17.39965772,17.6253259226,17.8824584104,18.2116527626,18.6440877334,19.1993147017,19.8842199151,20.6931996014,21.6094822783,22.6074351559,23.6556115975,24.7202386889,25.7688102681,26.773442096,27.7136625276,28.5783547596,29.3666367367,30.0875625407,30.7586512591,31.4033858765,32.0479581786,32.7176439512,33.4332548338,34.2081152147,35.0459519019,35.9399697094,36.8732348266,37.8203216992,38.7500207114,39.6287734176,40.4244148374,41.1097676573,41.6656535611,42.0829584014,42.3635010786,42.5195972687,42.5723623786,42.5489461925,42.4790182987,42.3909146018,42.3079006786,42.2450017403,42.2067913318,42.1864270796,42.1660823063,42.1187618257,42.0113263229,41.8084013275,41.4767320179,40.9894790513,40.3299434988,39.4942644293,38.4927465089,37.3496343864,36.1013351604,34.7932747893,33.4757340779,32.1991250031,31.0092266129,29.9428976186,29.0247230548,28.2649431999,27.6588664831,27.1877996984,26.8213568068,26.5208523881,26.2433674643,25.9460098187,25.5898863651,25.1433607164,24.584275232,23.900957226,23.0919840278,22.1648315492,21.1336587008,20.01657172,18.8327587662,17.5998816185,16.3320597874,15.0386909748,13.7242337616,12.3889491837,11.0304726345,9.64597934894,8.23462591262,6.79990458025,5.35154212452,3.90661343517,2.48962199331,1.13142020729,-0.13300757353,-1.26771401043,-2.23957094255,-3.02220641603,-3.59957512611,-3.9686498644,-4.14080740451,-4.14163708202,-4.00910469414,-3.79022982222,-3.53664764484,-3.29959287493,-3.12493530112,-3.04889647967,-3.0949835359,-3.27250291991,-3.57679196067,-3.99106535657,-4.48955581756,-5.0414671249,-5.61517752262,-6.18213987474,-6.72001386345,-7.21471217269,-7.66121698413,-8.06319484579,-8.43158255899,-8.78241887475,-9.13425068991,-9.50544992875,-9.91174538623,-10.3642125261,-10.867885061,-11.4210667528,-12.0153409087,-12.6362071962,-13.2642265623,-13.8765276806,-14.4485210682,-14.9556752052,-15.3752265622,-15.6877169495,-15.8782736488,-15.9375694841,-15.8624223213,-15.6560177625,-15.3277648135,-14.8928194665,-14.3713312984,-13.7874794782,-13.1683650842,-12.542817338,-11.9401560574,-11.3889369245,-10.9156959239,-10.5437090308,-10.2917946341,-10.1732075399,-10.1946997559,-10.3558472374,-10.6487545706,-11.0582424178,-11.5625893676,-12.1348405919,-12.7446184962,-13.360290432,-13.9512833906,-14.4903006999,-14.9551995997,-15.330330948,-15.6072148695,-15.7845148384,-15.8673611707,-15.8661481738,-15.7949765984,-15.6699303198,-15.5073659419,-15.3223640892,-15.1274516557,-14.9316647302,-14.7399891564,-14.5531929352,-14.3680510635,-14.1779544534,-13.9738835148,-13.7457071073,-13.4837348437,-13.1804062954,-12.8319520746,-12.439822143,-12.0116610363,-11.5616299523,-11.1099364033,-10.6815284953,-10.3040290022,-10.0051039602,-9.8095589466,-9.7365139514,-9.79701297401,-9.99237590003,-10.3135067518,-10.7412501839,-11.2477562213,-11.7986903327,-12.3560280718,-12.881112963,-13.3376402016,-13.6942579768,-13.9265470074,-14.0182351467,-13.9616111716,-13.7572026549,-13.4128626772,-12.9424603559,-12.3643881992,-11.7000873292,-10.9727550261,-10.2063450214,-9.42490745896,-8.65225012848,-7.91184271041,-7.22683873139,-6.62006307876,-6.1138121333,-5.72934139407,-5.48597011912,-5.39980779387,-5.48219283364,-5.73801619554,-6.16416633945,-6.74836331624,-7.46863937653,-8.29366932414,-9.18406159687,-10.0946027633
5,17.5998816185,16.3320597874,15.0386909748,13.7242337616,12.3889491837,11.0304726345,9.64597934894,8.23462591262,6.79990458025,5.35154212452,3.90661343517,2.48962199331,1.13142020729,-0.13300757353,-1.26771401043,-2.23957094255,-3.02220641603,-3.59957512611,-3.9686498644,-4.14080740451,-4.14163708202,-4.00910469414,-3.79022982222,-3.53664764484,-3.29959287493,-3.12493530112,-3.04889647967,-3.0949835359,-3.27250291991,-3.57679196067,-3.99106535657,-4.48955581756,-5.0414671249,-5.61517752262,-6.18213987474,-6.72001386345,-7.21471217269,-7.66121698413,-8.06319484579,-8.43158255899,-8.78241887475,-9.13425068991,-9.50544992875,-9.91174538623,-10.3642125261,-10.867885061,-11.4210667528,-12.0153409087,-12.6362071962,-13.2642265623,-13.8765276806,-14.4485210682,-14.9556752052,-15.3752265622,-15.6877169495,-15.8782736488,-15.9375694841,-15.8624223213,-15.6560177625,-15.3277648135,-14.8928194665,-14.3713312984,-13.7874794782,-13.1683650842,-12.542817338,-11.9401560574,-11.3889369245,-10.9156959239,-10.5437090308,-10.2917946341,-10.1732075399,-10.1946997559,-10.3558472374,-10.6487545706,-11.0582424178,-11.5625893676,-12.1348405919,-12.7446184962,-13.360290432,-13.9512833906,-14.4903006999,-14.9551995997,-15.330330948,-15.6072148695,-15.7845148384,-15.8673611707,-15.8661481738,-15.7949765984,-15.6699303198,-15.5073659419,-15.3223640892,-15.1274516557,-14.9316647302,-14.7399891564,-14.5531929352,-14.3680510635,-14.1779544534,-13.9738835148,-13.7457071073,-13.4837348437,-13.1804062954,-12.8319520746,-12.439822143,-12.0116610363,-11.5616299523,-11.1099364033,-10.6815284953,-10.3040290022,-10.0051039602,-9.8095589466,-9.7365139514,-9.79701297401,-9.99237590003,-10.3135067518,-10.7412501839,-11.2477562213,-11.7986903327,-12.3560280718,-12.881112963,-13.3376402016,-13.6942579768,-13.9265470074,-14.0182351467,-13.9616111716,-13.7572026549,-13.4128626772,-12.9424603559,-12.3643881992,-11.7000873292,-10.9727550261,-10.2063450214,-9.42490745896,-8.65225012848,-7.91184271041,-7.22683873139,-6.62006307876,-6.1138121333,-5.72934139407,-5.48597011912,-5.39980779387,-5.48219283364,-5.73801619554,-6.16416633945,-6.74836331624,-7.46863937653,-8.29366932414,-9.18406159687,-10.0946027633,-10.9773199465,-11.785105856,-12.475557574,-13.0146278174,-13.3796849464,-13.5616269731,-13.5657894653,-13.4115159646,-13.1304065374,-12.7634070523,-12.3570302627,-11.9590938399,-11.6144090392,-11.3608517616,-11.2261970888,-11.2260068636,-11.3627405124,-11.6261279385,-11.9947160495,-12.4383907704,-12.9215932885,-13.4068973175,-13.8585944401,-14.2459458839,-14.5457988713,-14.7443306449,-14.8377694557,-14.8320440537,-14.7414243177,-14.5863256487,-14.3905460877,-14.1782738714,-13.971231675,-13.7863043087,-13.6339293777,-13.5174246108,-13.4332976733,-13.372454153,-13.3221060676,-13.2681015642,-13.1973552952,-13.1000606613,-12.9714065161,-12.812594578,-12.6310491592,-12.4398153032,-12.2562416199,-12.1001274888,-11.9915709887,-11.9487781193,-11.9860847278,-12.112403742,-12.3302490553,-12.6354127578,-13.0172938596,-13.4598031706,-13.9427086784,-14.4432455661,-14.9378000266,-15.4034882398,-15.8194889428,-16.1680429227,-16.4350944912,-16.6106056814,-16.6886119004,-16.6671007867,-16.5477831452,-16.3357921118,-16.0393061255,-15.6690578292,-15.2376781706,-14.7588399924,-14.2462066402,-13.7122484245,-13.1670478042,-12.6172567924,-12.0653845223,-11.5095726648,-10.9439626541,-10.3596796538,-9.74636692581,-9.09411588751,-8.39556635774,-7.6479102638,-6.85452758289,-6.02601627424,-5.18044256989,-4.34272354232,-3.54314818595,-2.8151357721,-2.19241315615,-1.70586026403,-1.38032026979,-1.2316935216,-1.264628317,-1.47108486114,-1.8299812763,-2.3080358688,-2.86180549808,-3.44079715465,-3.99141261393,-4.46138851623,-4.8043286256,-4.98389978156,-4.97728193218,-4.77752435808,-4.39455871085,-3.85474480117,-3.19896448062,-2.47941833675,-1.75540500303,-1.08846075072,-0.537297643359,-0.152995890631,0.025121361265,-0.0274283934513,-0.318501230957,-0.838969418163,-1.56378880947,-2.45435827808,-3.46192661809,-4.5317173285,-5.60739017151,-6.63544417124,-7.56919014924,-8.37197842098,-9.01945151617,-9.50069245599,-9.8182446465,-9.98707885177,-10.0326671412,-9.98838717974,-9.89251968496,-9.78511672894,-9.70500983388,-9.68719608388,-9.76078970214,-9.94765882661,-10.2617880126,-10.7093246545,-11.2891927462,-11.9941013271,-12.8117462583,-13.7260065018,-14.7179687166,-15.7666719159,-16.8495392186,-17.9425451669,-19.0202408429,-20.0558108333,-21.0213538679,-21.8885553022,-22.6298540404,-23.2201070097,-23.6386372991,-23.8714400508,-23.9132371711,-23.7690381836,-23.454891685,-22.997599819,-22.4333044358,-21.8050151439,-21.1593075002,-20.5425461784,-19.9970621355,-19.5577242609,-19.2492955408,-19.0848615715,-19.065481869,-19.1810618762,-19.4122965195,-19.7334135513,-20.1153615267,-20.5290518033,-20.9482781359,-21.3519966948,-21.7257444851,-22.0620930951,-22.3601633117,-22.6243486207,-22.8624953174,-23.0838485678,-23.2970864262,-23.5087241755,-23.7220855135,-23.9369206857,-24.1496276182,-24.3539260846,-24.5417691364,-24.7042634653,-24.8324114204,-24.917569543,-24.9516194205,-24.926940131,-24.8363343412,-24.6730780326,-24.4312348782,-24.1063102046,-23.6962343238,-23.2025819823,-22.6318727134,-21.9967681943,-21.316990098,-20.6198187233,-19.9400854784,-19.3196254986,-18.8061973475,-18.4518981473,-18.3111054358,-18.4379690629,-18.8834690119,-19.6920602867,-20.8979536684,-22.5211359824,-24.563313339,-27.0040550834,-29.7975065872,-32.870102569,-36.1197268489,-39.4167127434,-42.6069542464,-45.5172077891,-47.9624267309,-49.7547161307,-50.7132613824,-50.6744092468,-49.5009951877,-47.0900352075,-43.3780358186,-38.3434085711,-32.0057787632,-24.4223158475,-15.6815456877,-5.89539291808,4.80958903729,16.300737855,28.4465041413,41.1214638471,54.2084590647,67.5975451608,81.1818218169,94.8506457727,108.481120523,121.929087355,135.021057724,147.548588507,159.266479821,169.895859155,179.132719844,186.661848727,192.175376554,195.394506012,196.092415855,194.115998197,189.404026918,181.999604913,172.055274866,159.829933727,145.677562077,130.028646977,113.365927443,96.1966356756,79.0236899245,62.3182997274,46.4961892274,31.899175465,18.7832225578,7.31340787855,-2.43443660544,-10.4662327954,-16.8575865018,-21.7386819266,-25.2777684851,-27.6647791553,-29.0963881676,-29.7634856919,-29.8416678134,-29.4849596828,-28.822649117,-27.9588366807,-26.9741232961,-25.928762721,-24.8665988196,-23.8191734903,-22.8095114957,-21.8552407501,-20.9708676073,-20.1691755062,-19.4618359508,-18.8594032764,-18.3709052428,-18.0032422169,-17.7605755465,-17.6438316818,-17.6503863665,-17.7739369756,-18.0045322702,-18.3287132014,-18.7297249637,-19.1877831315,-19.6804064609,-20.1828562154,-20.6687382826,-21.1108244164,-21.4821308929,-21.7572581619,-21.9139474764,-21.9347559345,-21.808698572,-21.532666294,-21.1124131141,-20.5629239657,-19.9080276561,-19.1792028713,-18.4136256396,-17.6516070085,-16.933652394,-16.2974256119,-15.7749139841,-15.3900661123,-15.1571167901,-15.0797338137,-15.1510306715,-15.3543989528,-15.665035541,-16.0519812859,-16.4804563314,-16.9142754171,-17.3181522979,-17.6597488589,-17.9113804811,-18.0513421503,-18.0648589027,-17.9446830736,-17.6913589953,-17.313158747,-16.8256705833,-16.2510072617,-15.616605519,-14.9536156109,-14.2949286345,-13.6729497289,-13.1172834695,-12.652539637,-12.2964818654,-12.0587226114,-11.9401158368,-11.9329204673,-12.0217153233,-12.1849555359,-12.3969872167,-12.6302932789,-12.8577342683,-13.0545723488,-13.2001170792,-13.2788977034,-13.281336293,-13.2039576743,-13.0492164624,-12.825043217,-12.5442094053,-12.2235872647,-11.8833423697,-11.5460534109,-11.2357169883,-10.9765765725,-10.7917228175,-10.701450118,-10.7214170735,-10.8607340829,-11.1201722268,-11.4907358304,-11.9528525646,-12.4764028732,-13.0217367019,-13.5417194487,-13.9847255328,-14.2983740823,-14.4336937279,-14.3493269716,-14.0153503213,-13.4163013977,-12.5530703816,-11.4434255977,-10.1210890884,-8.63343795064,-7.03805756846,-5.39849181007,-3.77960735785,-2.2430082111,-0.842904606799,0.377232272739,1.38699866813,2.17025118335,2.72515697701,3.06319246878,3.20726035433,3.1891496919,3.04659514852,2.82020128191,2.55048866575,2.27529251159,2.02770160118,1.83466599497,1.7163283029,1.68605130557,1.75103457276,1.91334741678,2.17116787277,2.5200159693,2.95380491534,3.46559759077,4.04803288208,4.69345963079,5.39387021614,6.14075201699,6.9249718822,7.73678192597,8.56599430817,9.40232886947,10.2358993898,11.0577772551,11.8605573596,12.6388494076,13.3896263525,14.1123781519,14.8090411141,15.48369858,16.1420748759,16.7908684322,17.4369889972,18.0867760016,18.7452791335,19.4156774758,20.0989003029,20.7934920839,21.4957386954,22.2000442089,22.899520774,23.5867308382,24.2545039672,24.896742225,25.509129472,26.0896700112,26.6389981809,27.1604202377,27.6596719,28.1443988693,28.6233928245,29.1056400336,29.5992614849,30.1104400596,30.6424400179,31.1948254974,31.7629765494,32.3379824562,32.9069624325,33.4538244685,33.9604272594,34.4080634955,34.7791421978,35.0589194663,35.2371145536,35.3092521718,35.2775907908,35.151527821,34.9474131862,34.6877502316,34.3998146181,34.1137750005,33.8604499603,33.6688783531,33.5639083651,33.5640183268,33.6795664167,33.9116269759,34.2515122958,34.6810084475,35.1732833427,35.6943668813,36.2050658126,36.6631622873,37.0257503074,37.2515792965,37.3032900076,37.1494402917,36.7662274232,36.1388239165,35.2622596499,34.1418066312,32.7928521781,31.2402772355,29.5173842467,27.6644399328,25.7269107649,23.7534725666,21.7938719141,19.8967090528,18.1072048266,16.4650129383,15.0021476704,13.7411166839,12.6933747821,11.8582391048,11.2224178722,10.7602930011,10.4350557555,10.2007254896,10.0049933193,9.79273877058,9.50998235268,9.10797222073,8.54706641775,7.80006769469,6.85469664399,5.71494919836,4.40117251289,2.94880290993,1.40583267638,-0.170802133161,-1.7196072853,-3.17929785367,-4.49351205147,-5.61504325695,-6.50922268999,-7.15619052361,-7.55192458182,-7.70802879289,-7.65039576875,-7.41693536964,-7.05460090716,-6.61595293292,-6.15548890931,-5.72594813294,-5.37478509459,-5.14099568185,-5.05247757735,-5.12410195066,-5.35665890418,-5.73680623692,-6.23809600402,-6.82307707576,-7.44638006336,-8.05859289218,-8.61064273764,-9.05832583419,-9.36658317493,-9.51311729114,-9.49098827196,-9.30991401235,-8.99612061563,-8.59072805132,-8.14679520432,-7.72527045712,-7.39018630472,-7.2034920321,-7.21993550709,-7.48238697638,-8.01795154799,-8.83515182547,-9.92238651376,-11.2477909473,-12.760544285,-14.3935856239,-16.0676164145,-17.6961790657,-19.1915135204,-20.4708099956,-21.4624057234,-22.111428127,-22.3843792158,-22.272196999,-21.7914256197,-20.9832758612,-19.9105520498,-18.6526410857,-17.2989772895,-15.9415818614,-14.6673985725,-13.5511861652,-12.6496738085,-11.9975448209,-11.6056057164,-11.4612522644,-11.5310951375,-11.7653858332,-12.1037130271,-12.4813359346,-12.8354915956,-13.1110560658,-13.2650465979,-13.2696077659,-13.113309029,-12.8007718329,-12.3508187871,-11.7934767221,-11.1662559484,-10.5101628324,-9.86588192515,-9.27049407932,-8.75499066975,-8.34271751371,-8.0487533002,-7.88011350531,-7.83658600581,-7.91195792225,-8.09538745307,-8.3727063857,-8.72750027794,-9.14189185165,-9.59703456739,-10.0733932252,-10.5509347705,-11.0093679312,-11.428553497,-11.7891626776,-12.0735986214,-12.2671280287,-12.3591081742,-12.3441499307,-12.223036682,-12.0032254916,-11.6987898948,-11.3297196654,-10.9205663845,-10.4985075198,-10.0909869767,-9.72316553968,-9.41546779048,-9.18153111839,-9.02683880795,-8.94825033543,-8.93453342022,-8.96786823151,-9.02615561163,-9.08584219693,-9.12489703104,-9.12554996661,-9.07643466448,-8.97386121179,-8.8220612252,-8.63238449662,-8.42156309941,-8.20927967345,-8.01536642376,-7.85700867181,-7.74632561778,-7.6886520898,-7.68175534849,-7.7161016857,-7.77615270241,-7.84253695022
5,10.2007254896,10.0049933193,9.79273877058,9.50998235268,9.10797222073,8.54706641775,7.80006769469,6.85469664399,5.71494919836,4.40117251289,2.94880290993,1.40583267638,-0.170802133161,-1.7196072853,-3.17929785367,-4.49351205147,-5.61504325695,-6.50922268999,-7.15619052361,-7.55192458182,-7.70802879289,-7.65039576875,-7.41693536964,-7.05460090716,-6.61595293292,-6.15548890931,-5.72594813294,-5.37478509459,-5.14099568185,-5.05247757735,-5.12410195066,-5.35665890418,-5.73680623692,-6.23809600402,-6.82307707576,-7.44638006336,-8.05859289218,-8.61064273764,-9.05832583419,-9.36658317493,-9.51311729114,-9.49098827196,-9.30991401235,-8.99612061563,-8.59072805132,-8.14679520432,-7.72527045712,-7.39018630472,-7.2034920321,-7.21993550709,-7.48238697638,-8.01795154799,-8.83515182547,-9.92238651376,-11.2477909473,-12.760544285,-14.3935856239,-16.0676164145,-17.6961790657,-19.1915135204,-20.4708099956,-21.4624057234,-22.111428127,-22.3843792158,-22.272196999,-21.7914256197,-20.9832758612,-19.9105520498,-18.6526410857,-17.2989772895,-15.9415818614,-14.6673985725,-13.5511861652,-12.6496738085,-11.9975448209,-11.6056057164,-11.4612522644,-11.5310951375,-11.7653858332,-12.1037130271,-12.4813359346,-12.8354915956,-13.1110560658,-13.2650465979,-13.2696077659,-13.113309029,-12.8007718329,-12.3508187871,-11.7934767221,-11.1662559484,-10.5101628324,-9.86588192515,-9.27049407932,-8.75499066975,-8.34271751371,-8.0487533002,-7.88011350531,-7.83658600581,-7.91195792225,-8.09538745307,-8.3727063857,-8.72750027794,-9.14189185165,-9.59703456739,-10.0733932252,-10.5509347705,-11.0093679312,-11.428553497,-11.7891626776,-12.0735986214,-12.2671280287,-12.3591081742,-12.3441499307,-12.223036682,-12.0032254916,-11.6987898948,-11.3297196654,-10.9205663845,-10.4985075198,-10.0909869767,-9.72316553968,-9.41546779048,-9.18153111839,-9.02683880795,-8.94825033543,-8.93453342022,-8.96786823151,-9.02615561163,-9.08584219693,-9.12489703104,-9.12554996661,-9.07643466448,-8.97386121179,-8.8220612252,-8.63238449662,-8.42156309941,-8.20927967345,-8.01536642376,-7.85700867181,-7.74632561778,-7.6886520898,-7.68175534849,-7.7161016857,-7.77615270241,-7.84253695022,-7.89482616845,-7.91456239444,-7.88814455759,-7.80919675646,-7.68010447547,-7.51251157117,-7.32670519677,-7.14995822821,-7.01402792654,-6.95210678682,-6.9955742334,-7.17090183124,-7.49702433451,-7.9834152736,-8.62901356811,-9.42205156488,-10.3407468064,-11.3547472952,-12.4271664529,-13.5170101144,-14.5817834935,-15.5800707225,-16.4739022031,-17.2307626721,-17.8251402338,-18.2395665583,-18.4651438569,-18.5015897479,-18.3568543494,-18.0463755774,-17.5920415563,-17.0209267333,-16.3638634795,-15.653905364,-14.9247333253,-14.2090534454,-13.5370369303,-12.9348602319,-12.4234148845,-12.0172688792,-11.7239689233,-11.543770241,-11.4698636716,-11.4891370762,-11.5834609652,-11.7314315143,-11.9104450855,-12.0989255273,-12.2784871641,-12.4357996302,-12.5639308944,-12.6629846461,-12.7399165859,-12.8075053986,-12.8825579422,-12.983530481,-13.1278331935,-13.3291397338,-13.5950376235,-13.9253250358,-14.3111878818,-14.735386618,-15.1734582041,-15.5958116633,-15.9704832499,-16.2662350966,-16.4556405627,-16.5178047788,-16.44041718,-16.2209154359,-15.8666453169,-15.3940160854,-14.8267635089,-14.1935304333,-13.5250470175,-12.8512306163,-12.1985242411,-11.5877527777,-11.0327032643,-10.5395401705,-10.1070632575,-9.72771983651,-9.38920801806,-9.07646006664,-8.77377605487,-8.46688379168,-8.14472555178,-7.80080952252,-7.43400920352,-7.0487435124,-6.65452131276,-6.26488453375,-5.89583256674,-5.5638556912,-5.28374466567,-5.06637416423,-4.91667569137,-4.83201726052,-4.80118978061,-4.80416315226,-4.81272045013,-4.79201013244,-4.70297874697,-4.50556500354,-4.16245508516,-3.64312344359,-2.92781891278,-2.01111109762,-0.904597478757,0.361601892772,1.7388618358,3.16176275285,4.5515218549,5.82099861613,6.88095357247,7.64708300059,8.04723169818,8.02811788752,7.56089966501,6.64497644172,5.30954884387,3.61264691393,1.63756467865,-0.513108202022,-2.72541053603,-4.88320741778,-6.87779653749,-8.6169573028,-10.0324850643,-11.0853823165,-11.7681247831,-12.103756622,-12.1419505732,-11.9525391234,-11.6173245936,-11.22116364,-10.8433694505,-10.5503816176,-10.3904407592,-10.3907108498,-10.5569640734,-10.8756281611,-11.3177351415,-11.8441320057,-12.411232334,-12.9766028748,-13.5037766306,-13.9658411407,-14.3475402518,-14.6458234268,-14.8689562393,-15.0344520532,-15.1661863582,-15.2911057126,-15.4359422073,-15.6242966885,-15.874368987,-16.1975037331,-16.5976007732,-17.0713254944,-17.6089614648,-18.195687731,-18.8130428649,-19.4403580249,-20.0559959337,-20.6383101682,-21.1663240354,-21.6202036431,-21.9816502992,-22.2343527885,-22.3646173851,-22.3622374879,-22.2215870854,-21.9428387322,-21.5331345241,-21.0074928631,-20.3892249974,-19.7096670983,-19.007102587,-18.3248462069,-17.7085724365,-17.2030805858,-16.8487816285,-16.6782538944,-16.7132364418,-16.9624054055,-17.4202106323,-18.0669438003,-18.8700764282,-19.7867625425,-20.7672651386,-21.7589571453,-22.7104821131,-23.5756464424,-24.316655031,-24.9063895135,-25.3295498238,-25.5826179601,-25.6727386601,-25.6157291078,-25.4335177277,-25.1513644743,-24.7952286619,-24.3896237216,-23.9562310912,-23.5134404509,-23.0768486179,-22.6605991974,-22.2793000592,-21.9501388564,-21.6947491113,-21.5403757621,-21.5199553156,-21.6708571814,-22.0322143428,-22.6409794566,-23.5270468318,-24.7079494195,-26.183744333,-27.9327216959,-29.9085056401,-32.0389748813,-34.2272378767,-36.35468367,-38.2859210382,-39.875234733,-40.9740402323,-41.4387150469,-41.1381322505,-39.960227882,-37.8170043564,-34.6475089803,-30.4185251928,-25.1229605721,-18.7761869252,-11.4108528272,-3.07091235763,6.19423859783,16.3345819179,27.3023880174,39.0525425336,51.5399066332,64.7136984247,78.5092921652,92.8382362077,107.577643021,122.560360381,137.567453562,152.324485421,166.502859016,179.727087063,191.58829539,201.663597787,209.540263845,214.842924138,217.261512467,216.577322272,212.6845222,205.604765634,195.493123984,182.634407188,167.429900415,150.375515814,132.033207125,112.998121164,93.8642988195,75.1917668954,57.4775994623,41.1330250007,26.4679872728,13.6838171343,2.87392177907,-5.96828009135,-12.9354968552,-18.1884760111,-21.9355825949,-24.411943676,-25.8598960305,-26.5121722595,-26.5788584905,-26.23869827,-25.6348480029,-24.8747535531,-24.0334544133,-23.1593613767,-22.2814146781,-21.4165182668,-20.5762557329,-19.7721060814,-19.0186640925,-18.334693374,-17.7421595233,-17.2636666536,-16.9189200157,-16.7209384583,-16.6727350112,-16.7650794379,-16.9757743698,-17.2706466081,-17.6062101968,-17.9337284336,-18.2042129278,-18.3737671029,-18.4086207775,-18.2892175831,-18.0128080817,-17.5941621013,-17.0642302353,-16.4668350746,-15.8537284756,-15.2785778728,-14.7906080374,-14.4286966693,-14.2166868881,-14.160537418,-14.2476993473,-14.4488182221,-14.7215522108,-15.0160143671,-15.2811297238,-15.4710771877,-15.5509790259,-15.5011073372,-15.319081108,-15.0197998266,-14.6331620716,-14.1999079449,-13.7661620559,-13.3774061024,-13.0726580409,-12.8795768142,-12.8110623217,-12.8637065252,-13.0182065728,-13.2416093432,-13.4910503165,-13.7185020096,-13.8759712105,-13.9205805224,-13.8190282573,-13.551024601,-13.1114318947,-12.5109751537,-11.7755219055,-10.9440491701,-10.0655147929,-9.19492719639,-8.3889592314,-7.70147568564,-7.17933891253,-6.85882398841,-6.76291686187,-6.89969038412,-7.26185898082,-7.82750949304,-8.56190193692,-9.42014013965,-10.3504395279,-11.2976775155,-12.2069074806,-13.0265519723,-13.7110601141,-14.2229071386,-14.5339143927,-14.6259579522,-14.4911971759,-14.1319801538,-13.560566995,-12.7987579991,-11.8774337893,-10.8359272372,-9.72107535909,-8.58576567114,-7.48681207483,-6.4820751438,-5.6268712466,-4.96987113769,-4.54883941058,-4.3866780185,-4.48828304623,-4.83868993424,-5.40286954051,-6.12736111474,-6.94371457812,-7.77349553954,-8.53441465962,-9.14700527415,-9.54120632576,-9.66221573459,-9.47505498346,-8.96741402846,-8.15050926087,-7.05786999575,-5.74215748282,-4.27030323148,-2.7174185354,-1.16005993344,0.330481097248,1.69417840221,2.88693587313,3.88343142905,4.67786444211,5.28258486259,5.72484601834,6.0421569542,6.27687788322,6.47077774462,6.66024531854,6.87272161335,7.12472378881,7.42159271192,7.75885413191,8.12487165928,8.5043153755,8.88189007443,9.2457673748,9.59024017082,9.91725023775,10.2366082233,10.5649059613,10.92329236,11.3344284359,11.8190411232,12.3925497894,13.0622379998,13.8253841214,14.6686513588,15.5688812273,16.4952522868,17.4125824903,18.2853956333,19.0822644687,19.779901502,20.3664980597,20.8439053475,21.2283905846,21.5498646676,21.8496428992,22.17694833,22.5844848513,23.1234868582,23.8386918013,24.7636829372,25.9170162538,27.2994829726,28.8927719298,30.6596886072,32.545964304,34.4835570131,36.3952154739,38.1999625719,39.8190667605,41.1820210167,42.2320439847,42.9306578003,43.2609764432,43.2294475171,42.8659165529,42.2220133033,41.367982681,40.3881903686,39.3756192036,38.4257345833,37.6301347882,37.0704153581,36.8126650752,36.9029738002,37.3642690703,38.1947106234,39.3677640744,40.8339536055,42.5241674692,44.3542693549,46.230664006,48.056387808,49.7372541809,51.1875860226,52.335114425,53.1247095562,53.5207258966,53.5078765538,53.0906854198,52.2916870308,51.1486394501,49.7110758826,48.0365412289,46.1868409361,44.2245771735,42.2101717676,40.1994893233,38.2420905778,36.3800761588,34.6474317218,33.0697598227,31.6642810005,30.4400026601,29.3979838642,28.5316605799,27.8272327695,27.2641460663,26.815721753,26.4499961801,26.1308236009,25.81927572,25.4753393503,25.0598733963,24.5367416074,23.8749932777,23.0509271344,22.049851703,20.8673549144,19.5099198933,17.9947720214,16.3489102765,14.6073566147,12.8107418501,11.0024245597,9.22539987131,7.51928757166,5.91768722583,4.4461504371,3.12095100955,1.94874122414,0.927078719239,0.0457075977755,-0.711606484715,-1.3649424328,-1.93606460958,-2.44649201522,-2.91599474767,-3.36163747798,-3.79739916436,-4.23431139234,-4.68098794639,-5.1443748772,-5.63053740032,-6.14531593159,-6.69472257912,-7.28500307417,-7.92234804867,-8.61229240059,-9.35888400233,-10.1637279124,-11.0250190306,-11.9366693455,-12.8876231257,-13.8614415427,-14.836230221,-15.784976843,-16.6763551815,-17.4760301612,-18.1484613066,-18.6591486548,-18.9771997586,-19.0780271698,-18.9459251121,-18.5762363594,-17.9768188459,-17.1685645101,-16.1848106732,-15.0696078179,-13.8749491649,-12.6572034536,-11.4730989167,-10.3756651714,-9.41054208615,-8.61301315643,-8.00602720956,-7.59935325257,-7.38988704282,-7.36301056685,-7.49480921018,-7.7548834988,-8.10945606701,-8.52446965682,-8.96839554814,-9.41451906451,-9.84253380271,-10.2393525585,-10.5991237768,-10.9225206549,-11.2154385454,-11.4872881742,-11.7491017833,-12.0116734844,-12.2839342311,-12.5717199834,-12.8770357556,-13.1978561919,-13.5284423632,-13.8601005541,-14.1822665728,-14.4837716503,-14.7541342954,-14.9847253136,-15.1696683558,-15.3063642868,-15.3955645341,-15.4409674303,-15.4483720378,-15.4244915318,-15.3755932169,-15.3061808969,-15.2179533763,-15.1092499947,-14.975128025,-14.8081156023,-14.5995653802,-14.3414216259,-14.028129673,-13.6583783815,-13.2363812902,-12.7724681303,-12.2828633775,-11.7886535486,-11.3140680152,-10.8842987168,-10.5231468423,-10.2508011692,-10.0820235682,-10.0249500506,-10.0806233693,-10.2432696169,-10.5012298571,-10.8383712226,-11.2357422882,-11.6732151616,-12.1308770646,-12.5899950704,-13.0334687625,-13.445790094,-13.8126280775,-14.1202298234,-14.3548654116,-14.5025357988,-14.5491120347,-14.4809893691,-14.2862359266,-13.9561107171,-13.4867390465,-12.8806817326,-12.1481286844,-11.307489241,-10.3852331257,-9.41494052926,-8.43562703339,-7.48949934156,-6.61935744669,-5.8658825642,-5.26504081192,-4.84579917539,-4.62830406937,-4.62262388283,-4.82811200642,-5.23340881857
5,-17.4760301612,-18.1484613066,-18.6591486548,-18.9771997586,-19.0780271698,-18.9459251121,-18.5762363594,-17.9768188459,-17.1685645101,-16.1848106732,-15.0696078179,-13.8749491649,-12.6572034536,-11.4730989167,-10.3756651714,-9.41054208615,-8.61301315643,-8.00602720956,-7.59935325257,-7.38988704282,-7.36301056685,-7.49480921018,-7.7548834988,-8.10945606701,-8.52446965682,-8.96839554814,-9.41451906451,-9.84253380271,-10.2393525585,-10.5991237768,-10.9225206549,-11.2154385454,-11.4872881742,-11.7491017833,-12.0116734844,-12.2839342311,-12.5717199834,-12.8770357556,-13.1978561919,-13.5284423632,-13.8601005541,-14.1822665728,-14.4837716503,-14.7541342954,-14.9847253136,-15.1696683558,-15.3063642868,-15.3955645341,-15.4409674303,-15.4483720378,-15.4244915318,-15.3755932169,-15.3061808969,-15.2179533763,-15.1092499947,-14.975128025,-14.8081156023,-14.5995653802,-14.3414216259,-14.028129673,-13.6583783815,-13.2363812902,-12.7724681303,-12.2828633775,-11.7886535486,-11.3140680152,-10.8842987168,-10.5231468423,-10.2508011692,-10.0820235682,-10.0249500506,-10.0806233693,-10.2432696169,-10.5012298571,-10.8383712226,-11.2357422882,-11.6732151616,-12.1308770646,-12.5899950704,-13.0334687625,-13.445790094,-13.8126280775,-14.1202298234,-14.3548654116,-14.5025357988,-14.5491120347,-14.4809893691,-14.2862359266,-13.9561107171,-13.4867390465,-12.8806817326,-12.1481286844,-11.307489241,-10.3852331257,-9.41494052926,-8.43562703339,-7.48949934156,-6.61935744669,-5.8658825642,-5.26504081192,-4.84579917539,-4.62830406937,-4.62262388283,-4.82811200642,-5.23340881857,-5.81706927839,-6.54877399542,-7.39105224455,-8.30141373516,-9.2347541553,-10.1458731213,-10.9919289718,-11.7346584129,-12.3422127279,-12.790504339,-13.0640120814,-13.1560517991,-13.0685709567,-12.8115633798,-12.4022178058,-11.8639104812,-11.2251301484,-10.5183891873,-9.77913586111,-9.04464925815,-8.35287908252,-7.74119161212,-7.2450008297,-6.89629550516,-6.72211158112,-6.74303625201,-6.97185782057,-7.41248767678,-8.05927418895,-8.8968030309,-9.9002383399,-11.0362110297,-12.2642128741,-13.5384150908,-14.8098029163,-16.0285045406,-17.1461921317,-18.1184406058,-18.9069413301,-19.4814787089,-19.821585138,-19.9177940675,-19.7724137861,-19.399749094,-18.8257078338,-18.0867479842,-17.2281517308,-16.3016572079,-15.362535591,-14.4662667917,-13.6650331759,-13.0043058122,-12.5198284222,-12.2352991652,-12.1610038728,-12.2935679717,-12.6168772671,-13.1040856897,-13.7205005289,-14.4270317592,-15.1838267324,-15.95369296,-16.7049409546,-17.4133511389,-18.0630747301,-18.6464068727,-19.1625077741,-19.6152789952,-20.0107112095,-20.3540914834,-20.6474807148,-20.8878397304,-21.0660981672,-21.1673342258,-21.1720824829,-21.0586313476,-20.8060321154,-20.397436664,-19.823325238,-19.0841878645,-18.1922833277,-17.1722104115,-16.0601718342,-14.9019714504,-13.7499381277,-12.6590955515,-11.6829810642,-10.8695498218,-10.2575815834,-9.87394185125,-9.73194775737,-9.83096584387,-10.1572379459,-10.685805716,-11.3832950993,-12.2112387551,-13.1295647245,-14.099868969,-15.088119956,-16.0665135459,-17.0143000041,-17.9175318411,-18.7678178242,-19.5602992338,-20.2911728016,-20.9551552482,-21.5433045534,-22.0415766923,-22.4304053303,-22.6854560473,-22.7795431788,-22.6855284667,-22.3798711745,-21.8463922239,-21.0797662078,-20.0882699687,-18.8953894763,-17.5400058678,-16.0750316683,-14.5645337298,-13.0795445925,-11.6929130123,-10.4736615958,-9.48139011498,-8.761275703,-8.34017141032,-8.22419806759,-8.39807576367,-8.82627020329,-9.45585577728,-10.2208385899,-11.0475519303,-11.8606422628,-12.5891106975,-13.1718661221,-13.5622842176,-13.731352977,-13.6691182878,-13.3843143367,-12.9022567143,-12.2612677959,-11.5080676193,-10.6926741955,-9.86339695888,-9.06246885119,-8.32275264026,-7.66579486893,-7.10131507042,-6.62804000241,-6.23564908719,-5.9075036612,-5.6237921751,-5.36472917342,-5.11348521029,-4.85858438002,-4.59557500596,-4.32785077317,-4.0665716711,-3.82970580524,-3.64028330149,-3.52401940745,-3.50652099248,-3.61033339899,-3.85210766785,-4.24016798052,-4.77273484094,-5.43701258857,-6.20928316951,-7.05606512992,-7.9363017127,-8.80444065084,-9.61416929103,-10.3224830143,-10.8937044341,-11.3030461179,-11.5393277619,-11.6065222597,-11.5239109855,-11.3247680876,-11.0536520792,-10.7625412143,-10.5061859058,-10.3371476143,-10.3010353741,-10.4324320768,-10.7519247084,-11.2645258606,-11.9596145336,-12.8123531562,-13.7863767258,-14.8374194117,-15.9174601706,-16.9789414028,-17.9786438154,-18.8808774789,-19.6597575168,-20.3004538316,-20.799419513,-21.1636979678,-21.4094761281,-21.5600883217,-21.6436852521,-21.6907706325,-21.731781208,-21.7948515196,-21.9038697805,-22.0769010528,-22.3250312873,-22.6516704496,-23.0523420599,-23.5149754477,-24.0207007544,-24.5451213278,-25.0600027607,-25.5352758147,-25.9412092557,-26.2505780157,-26.4406415244,-26.4947624945,-26.4035379011,-26.1653744931,-25.7865086523,-25.2805308282,-24.6675167465,-23.9728852936,-23.226096893,-22.4592818818,-21.705854462,-20.9991334997,-20.3709649489,-19.8503279209,-19.4619106489,-19.2246642573,-19.1503785849,-19.242369279,-19.4944099997,-19.8900774226,-20.4026899273,-20.9960058417,-21.6257999167,-22.2423580934,-22.7938271168,-23.2302397141,-23.5079250356,-23.5939265303,-23.470001621,-23.1357796092,-22.6107080981,-21.9345172357,-21.1660614194,-20.3805414434,-19.6652474362,-19.1140787653,-18.8211820157,-18.8740997899,-19.3468448282,-20.2933127739,-21.7414307207,-23.6884138375,-26.0974714148,-28.8962639361,-31.9773565992,-35.2008319127,-38.399106127,-41.3838393944,-43.9546457792,-45.9091151791,-47.0534813332,-47.2131375454,-46.2421405362,-44.030870512,-40.5111379191,-35.6582376519,-29.4897318862,-22.0610670763,-13.4584673541,-3.78986107098,6.82514557329,18.2650669385,30.4148785013,43.1717571148,56.4473082299,70.1657298486,84.2578323252,98.6513670804,113.258659504,127.963026126,142.60581584,156.976088626,170.804887666,183.765749929,195.482543347,205.54495535,213.531060895,219.035470928,221.700725992,221.248978785,217.510709961,210.447310218,200.164850088,186.917195681,171.097707354,153.219935526,133.88884983,113.765066374,93.5251710028,73.8215190092,55.2448167624,38.2923940456,23.3444253872,10.649541501,0.320382283074,-7.66122850559,-13.4305795985,-17.2195433716,-19.3313328249,-20.1128419092,-19.9268401419,-19.1260817116,-18.0310370134,-16.9125091735,-15.979906931,-15.3754502251,-15.1741206633,-15.388762938,-15.9794155321,-16.8657138114,-17.941073996,-19.0873347705,-20.1886006654,-21.143188622,-21.8728126887,-22.3284341304,-22.4925339863,-22.377906723,-22.0233978222,-21.4872837896,-20.8391905172,-20.1515417545,-19.4915114744,-18.9143253035,-18.4585363754,-18.1436228512,-17.969957721,-17.9209253732,-17.9667359399,-18.0693393876,-18.1877766601,-18.2833231049,-18.3238681341,-18.2871160352,-18.1623642347,-17.9507953326,-17.6643884167,-17.3236975395,-16.9548485586,-16.5861615808,-16.2448117417,-15.9538985028,-15.7302115843,-15.5828735857,-15.5129215879,-15.5137788203,-15.5724762158,-15.6714210486,-15.7904790057,-15.9091348619,-16.0085194457,-16.0731290738,-16.0921106092,-16.060034587,-15.9771259412,-15.8489639236,-15.6856988789,-15.5008645819,-15.3098928255,-15.1284630334,-14.9708421596,-14.8483836571,-14.7683511947,-14.7332065966,-14.7404507869,-14.7830367801,-14.850296115,-14.9292484276,-15.0061113198,-15.0678039881,-15.1032471897,-15.1043013751,-15.0662458331,-14.987772867,-14.8705405163,-14.71838517,-14.5363345356,-14.3295779421,-14.1025440042,-13.8582073599,-13.5977013857,-13.3202600454,-13.0234591363,-12.7036858267,-12.3567441289,-11.9785055374,-11.5655335679,-11.1156379853,-10.6283382797,-10.1052295062,-9.55024549351,-8.96980771754,-8.37283828305,-7.7706081753,-7.17639186453,-6.60490919131,-6.07155554694,-5.59144941716,-5.17835790602,-4.84358995238,-4.59496712526,-4.43598756546,-4.36528687683,-4.37647124477,-4.45835666108,-4.59559958107,-4.76965510293,-4.95995587881,-5.14517601575,-5.30443621812,-5.41832351834,-5.46964006881,-5.44385328951,-5.329281593,-5.11710113918,-4.80128686115,-4.37859856162,-3.84869122566,-3.21437585181,-2.48199557023,-1.66182576664,-0.768369605407,0.179588785438,1.15928909691,2.14472428669,3.10779611942,4.01983013025,4.85332550401,5.58377763528,6.19139856394,6.66257305874,6.99092154504,7.17788800423,7.2328225159,7.17257544372,7.02065641139,6.80603263297,6.56164848683,6.32274583064,6.12505917611,6.00295849805,5.98761991955,6.10532099673,6.37597758298,6.81205387383,7.41797559455,8.19015010262,9.11764354221,10.1834882966,11.3665048799,12.6434369003,13.9911330505,15.3884814174,16.8178188579,18.265604487,19.7222550922,21.1811756649,22.6371568909,24.0844271193,25.5147161249,26.9156980982,28.2701301686,29.5559005879,30.7470658828,31.8158108392,32.7351306991,33.481929593,34.0401656244,34.403657121,34.5781958253,34.582685049,34.4491234126,34.2213737381,33.9527767333,33.7027767455,33.5328129374,33.5017900945,33.6614797438,34.0522173135,34.6992569856,35.6101222007,36.7732425781,38.1580916856,39.7169307877,41.3881233312,43.1008236096,44.7806788664,46.3560403605,47.7640799487,48.9561750855,49.9019693029,50.5916383006,51.0360820583,51.2649975914,51.3230343637,51.2644620258,51.1469578056,51.0252245864,50.9451657889,50.939266625,51.0236727106,51.1972372643,51.4425559048,51.7287561027,52.0155901763,52.2582276061,52.4120789471,52.4370218383,52.3005344422,51.9794497466,51.460287622,50.7383555381,49.8159912411,48.700421072,47.4017134444,45.9312253734,44.3007942057,42.5227494864,40.6106450914,38.5804681575,36.4519890991,34.2498865943,32.0043139828,29.7506616162,27.5283984731,25.3790254798,23.3433194931,21.4581685502,19.753377622,18.2488487395,16.9525082599,15.859274503,14.9512444785,14.1991441166,13.5649461172,13.0054253314,12.4763053172,11.9365641004,11.3524251299,10.7005715604,9.97019298538,9.16359939242,8.29530363515,7.38965956819,6.47732249331,5.59094643668,4.76062876871,4.00964498913,3.35098281948,2.78509118139,2.29911885449,1.8677467833,1.45553668936,1.02054689453,0.518823293565,-0.0907240582817,-0.841588747792,-1.75558997916,-2.8398823371,-4.08536634341,-5.46666334096,-6.94365711928,-8.46444885228,-9.9694363521,-11.3961250708,-12.6842143732,-13.7804820351,-14.6430130895,-15.2443838344,-15.5735132588,-15.6360244415,-15.453106307,-15.0590173628,-14.49751211,-13.8175821672,-13.068973834,-12.2979616248,-11.5438192427,-10.8363393949,-10.1946228603,-9.6272011988,-9.13339486704,-8.70565886951,-8.33255096265,-8.00188986861,-7.70366387203,-7.43230533565,-7.18805540419,-6.97728749357,-6.81181401983,-6.70734276078,-6.6813555199,-6.75073845721,-6.92949640897,-7.22683781675,-7.64583460417,-8.18275875713,-8.82709230512,-9.56211668756,-10.3659244395,-11.2126686012,-12.0738747969,-12.9196829861,-13.7199504328,-14.4452198554,-15.0676196076,-15.5617993442,-15.906003465,-16.0833430505,-16.0832520389,-15.9030200995,-15.5492034095,-15.0386475535,-14.3988338735,-13.6672946304,-12.8899354772,-12.1182457754,-11.4055467823,-10.8025957758,-10.3530001155,-10.0889727074,-10.02796261,-10.1706177378,-10.5003904151,-10.9849017896,-11.578965596,-12.2289652185,-12.8781078175,-13.4719674338,-13.9636901926,-14.3182751007,-14.5154595979,-14.5509153459,-14.4356725401,-14.1939103235,-13.8594460216,-13.4714005788,-13.0695935732,-12.6902211325,-12.3622984756,-12.1052208567,-11.9276344084,-11.82763594,-11.7941605622,-11.8092866508,-11.8511025046,-11.8967451754,-11.9252392713,-11.9198251063,-11.869559225,-11.7700811171,-11.6235522999,-11.4378732013,-11.2253570031,-11.0010795522,-10.7811285118,-10.5809477809,-10.4139248118,-10.290311137,-10.2165121392,-10.1947401261,-10.2229997717,-10.2953660174,-10.4025156498,-10.532476569,-10.6715559134,-10.805396634,-10.9200941134,-11.003286649,-11.0451244387,-11.0390280696,-10.9821718337,-10.8756654194,-10.7244498349,-10.5369578851,-10.3246070665,-10.1011904236,-9.88221228
5,-6.92949640897,-7.22683781675,-7.64583460417,-8.18275875713,-8.82709230512,-9.56211668756,-10.3659244395,-11.2126686012,-12.0738747969,-12.9196829861,-13.7199504328,-14.4452198554,-15.0676196076,-15.5617993442,-15.906003465,-16.0833430505,-16.0832520389,-15.9030200995,-15.5492034095,-15.0386475535,-14.3988338735,-13.6672946304,-12.8899354772,-12.1182457754,-11.4055467823,-10.8025957758,-10.3530001155,-10.0889727074,-10.02796261,-10.1706177378,-10.5003904151,-10.9849017896,-11.578965596,-12.2289652185,-12.8781078175,-13.4719674338,-13.9636901926,-14.3182751007,-14.5154595979,-14.5509153459,-14.4356725401,-14.1939103235,-13.8594460216,-13.4714005788,-13.0695935732,-12.6902211325,-12.3622984756,-12.1052208567,-11.9276344084,-11.82763594,-11.7941605622,-11.8092866508,-11.8511025046,-11.8967451754,-11.9252392713,-11.9198251063,-11.869559225,-11.7700811171,-11.6235522999,-11.4378732013,-11.2253570031,-11.0010795522,-10.7811285118,-10.5809477809,-10.4139248118,-10.290311137,-10.2165121392,-10.1947401261,-10.2229997717,-10.2953660174,-10.4025156498,-10.532476569,-10.6715559134,-10.805396634,-10.9200941134,-11.003286649,-11.0451244387,-11.0390280696,-10.9821718337,-10.8756654194,-10.7244498349,-10.5369578851,-10.3246070665,-10.1011904236,-9.88221228,-9.68418905736,-9.523910638,-9.41764367609,-9.38025982844,-9.42428892735,-9.55892491525,-9.78904336995,-10.1143158227,-10.528521939,-11.019163264,-11.5674716941,-12.1488836496,-12.7340187516,-13.2901609396,-13.7831919246,-14.1798746463,-14.4503335697,-14.5705370316,-14.5245627952,-14.3064279983,-13.9212913347,-13.3858863345,-12.7281132886,-11.9857939481,-11.2046667825,-10.4357617763,-9.73233638901,-9.14657683139,-8.72627368978,-8.51167334865,-8.53269241258,-8.80666532162,-9.33677591987,-10.1112991585,-11.1037457919,-12.2739582279,-13.5701486108,-14.931801688,-16.2932889385,-17.5879646302,-18.7524503063,-19.7307741956,-20.4780260823,-20.9632204486,-21.1711286422,-21.1029361945,-20.7756921913,-20.2206297806,-19.4805365893,-18.6064294587,-17.6538321971,-16.6789659866,-15.7351427491,-14.8696089743,-14.1210296076,-13.5177364902,-13.0767997333,-12.8039174491,-12.6940623811,-12.7327760428,-12.8979653606,-13.1620364426,-13.4941959242,-13.8627605882,-14.2373364832,-14.5907541487,-14.9006713551,-15.1507749732,-15.331527962,-15.4404182741,-15.4816791121,-15.4654712265,-15.4065530509,-15.3225142621,-15.2317079464,-15.1510758633,-15.0941066153,-15.0691831636,-15.0785529203,-15.1180878176,-15.1779010975,-15.2437683449,-15.2991827075,-15.3277778173,-15.3157921311,-15.2542345641,-15.1404454774,-14.978824301,-14.780604706,-14.5626860518,-14.3456597321,-14.1512842288,-13.9997469471,-13.907090588,-13.8831685051,-13.9304264433,-14.0436953891,-14.2110380234,-14.4155407777,-14.6378076392,-14.8588114017,-15.0627081369,-15.2392281291,-15.3853189669,-15.5058231893,-15.6131069831,-15.7256975886,-15.8661144395,-16.058174786,-16.3241070079,-16.6818103813,-17.1425626086,-17.7094054259,-18.376346767,-19.1284191288,-19.9425409909,-20.7890518397,-21.6337380395,-22.4401385647,-23.1719147104,-23.7950821937,-24.2799326945,-24.6025107716,-24.7455586824,-24.6988947295,-24.4592490476,-24.0296408631,-23.4184363389,-22.6382660721,-21.704995084,-20.6369176027,-19.4542929141,-18.1792550009,-16.8360339875,-15.4513424291,-14.0547239192,-12.6786480396,-11.3581667773,-10.1300158891,-9.03113683976,-8.09669507157,-7.35776291452,-6.83890658219,-6.55595554359,-6.51423235239,-6.70748050447,-7.11765260348,-7.71562317185,-8.46278589444,-9.31339954637,-10.2174719415,-11.1239233704,-11.9837524245,-12.7529374477,-13.3948437225,-13.8819648942,-14.1968991246,-14.3325360359,-14.2914997573,-14.0849490012,-13.730873995,-13.2520535283,-12.6738471218,-12.0220008642,-11.3206419986,-10.5906258087,-9.84837649616,-9.10532922344,-8.36803167152,-7.6389005316,-6.91755478005,-6.2025713732,-5.49344239185,-4.79246976981,-4.10632633016,-3.44704517217,-2.83226994068,-2.2846945113,-1.83072574296,-1.49850049505,-1.31546471549,-1.30576989431,-1.4877579529,-1.87179215398,-2.45865474316,-3.23867861775,-4.19171614252,-5.28797744105,-6.48969639644,-7.75350890805,-9.033359602,-10.2836963632,-11.4626735139,-12.5350705283,-13.4746485375,-14.2657133375,-14.9037288183,-15.3949216683,-15.754925925,-16.0066213282,-16.1774092581,-16.2962325297,-16.3906715415,-16.4844346694,-16.595506356,-16.7351290231,-16.9076866602,-17.1114438246,-17.3399895912,-17.5841554468,-17.8341285436,-18.0814706586,-18.3207766713,-18.5507584217,-18.7746127718,-18.999619007,-19.2360036778,-19.4952040165,-19.7877462735,-20.1210225309,-20.4972870521,-20.9121903337,-21.3541195574,-21.8045193257,-22.2392363693,-22.6307843061,-22.9512827136,-23.1757126363,-23.2850677205,-23.2689775239,-23.1274378306,-22.871392705,-22.522057914,-22.1090350559,-21.6674196532,-21.2342355886,-20.8446164008,-20.5281892274,-20.3060937135,-20.1889876959,-20.1762638716,-20.2565445532,-20.4093581435,-20.6077559009,-20.8215224252,-21.0205816183,-21.178204778,-21.2736818632,-21.2942062844,-21.2358300692,-21.1034534938,-20.9099093215,-20.6742804219,-20.4196489479,-20.1705154857,-19.9501474237,-19.7781162833,-19.6682633661,-19.6272927486,-19.6541334249,-19.740143094,-19.8701508474,-20.0242614366,-20.1802762518,-20.31653086,-20.414909212,-20.463771264,-20.4605227167,-20.4135615707,-20.3433567842,-20.2824525765,-20.2742520556,-20.3705182658,-20.6276372607,-21.101808273,-21.8434474539,-22.8911990925,-24.2660284799,-25.9659143359,-27.9616605821,-30.1943045339,-32.5745103467,-34.9842039157,-37.280533103,-39.3020350978,-40.876676916,-41.8312270552,-42.0012411602,-41.2408272716,-39.4313175336,-36.4880255081,-32.3644133213,-27.0532216729,-20.5844091526,-13.0200780428,-4.44689924779,5.03314534582,15.3126425549,26.288041041,37.8671212782,49.9735160683,62.5474112874,75.5419501963,88.9153698314,102.619469357,116.585585124,130.709750806,144.839075452,158.761508287,172.201027817,184.819876138,196.228776617,206.005183751,213.718615236,218.96113437,221.380225861,220.710771981,216.802689162,209.641074503,199.356417755,186.223470825,170.648593398,153.146640542,134.309556619,114.769649201,95.1609467587,76.0820650689,58.0636491083,41.5427969818,26.8460178466,14.1813461897,3.6393431739,-4.79804526038,-11.2423709256,-15.8792456561,-18.9466366914,-20.7128568233,-21.4559519117,-21.4458117846,-20.9298911273,-20.122978121,-19.201036826,-18.2988100664,-17.510624598,-16.8936965318,-16.473185655,-16.2482757192,-16.198642033,-16.2907851484,-16.4838401693,-16.7346001201,-17.0016087106,-17.2482760313,-17.4450454205,-17.570688271,-17.6128270051,-17.567790687,-17.4399019187,-17.2402871388,-16.9853020402,-16.694672461,-16.3894678284,-16.0900451625,-15.8141209614,-15.5751391498,-15.3810985086,-15.2339765996,-15.1298365622,-15.0596311907,-15.0106340904,-14.9683430603,-14.9186299241,-14.8498664103,-14.7547467863,-14.6315589461,-14.4847236031,-14.3245159063,-14.165989845,-14.0272269025,-13.927112856,-13.8829012759,-13.9078446857,-14.0091643728,-14.1865909914,-14.4316463806,-14.7277592251,-15.0512200097,-15.3728913529,-15.6605072249,-15.8813294458,-16.0048923487,-16.0055631625,-15.8646773167,-15.5720690765,-15.1268978959,-14.5377554355,-13.822112739,-13.0052202093,-12.1185994993,-11.1982674522,-10.2828139369,-9.41142659799,-8.62192598111,-7.94885340458,-7.42164779332,-7.06295799704,-6.8871596806,-6.89917214283,-7.09369030046,-7.45495169986,-7.95714200456,-8.5655032751,-9.23815032494,-9.9285283282,-10.5883691356,-11.1709348053,-11.6342846082,-11.9442748622,-12.0770060104,-12.0204717928,-11.7752397853,-11.3540933891,-10.7806789798,-10.0873110061,-9.31217509315,-8.49622165191,-7.68005463785,-6.90109475198,-6.19124259389,-5.57519649602,-5.06950238256,-4.68233679971,-4.41395490066,-4.25767744207,-4.20124963551,-4.22838469114,-4.32030921115,-4.45715610626,-4.61909922114,-4.78718459797,-4.943876242,-5.07338845078,-5.16191179801,-5.19784763022,-5.17214296598,-5.07876701338,-4.91530197869,-4.68354944044,-4.38999631958,-4.04595643452,-3.66721417755,-3.27304757165,-2.8845926616,-2.52261760891,-2.20488713122,-1.94339890526,-1.74184678051,-1.59369710662,-1.48124421979,-1.37593476911,-1.24012054415,-1.03022618374,-0.701120514898,-0.211284918544,0.471789714229,1.36664376216,2.47400452884,3.77464735513,5.22937454006,6.78127607312,8.3601516739,9.88869334013,11.2897913988,12.4941680468,13.4474821521,14.1160950192,14.4908317342,14.5882971733,14.4495817302,14.1364861588,13.7256726648,13.301377461,12.9474718222,12.7397177474,12.739026054,12.986395953,13.5000125257,14.2747260318,15.283863406,16.4830591124,17.815571897,19.2184054968,20.6284962526,21.9882756968,23.2500516607,24.3788529604,25.3536167429,26.1668273222,26.8229066356,27.3357832381,27.7261151341,28.0186114749,28.2398015217,28.416458284,28.574726674,28.7398603905,28.9363619097,29.188260995,29.5192637439,29.9525515118,30.5100949864,31.2114566957,32.0721672968,33.1018602029,34.3024214544,35.6664470351,37.1762923074,38.8039471425,40.5118804947,42.2548802537,43.9827840588,45.6438734483,47.1886063665,48.5733071404,49.7634272646,50.7360349431,51.4812782223,52.0026815063,52.3162615219,52.4485705563,52.4338791199,52.310787674,52.1186019825,51.893816964,51.6670309054,51.4605593141,51.2869412329,51.1484381814,51.0375265538,50.9382889428,50.8285287652,50.6823739991,50.4731045901,50.1759346661,49.7705016598,49.242853637,48.5867768338,47.80436223,46.9057698112,45.9082107916,44.8342308266,43.7094392742,42.5598866843,41.4093381868,40.2767161702,39.1739841537,38.104710926,37.0634908165,36.0363088143,35.0018388788,33.933563139,32.8025115804,31.5803568495,30.2425638963,28.7712917364,27.1577724244,25.4039445837,23.5231881697,21.5400864428,19.4892242261,17.4131128244,15.3594058429,13.3776306725,11.5157021291,9.81650363463,8.31481560791,7.03484081024,5.98852460082,5.17479882207,4.57979804779,4.17801467394,3.93428360842,3.80642547657,3.74833401344,3.71327023884,3.65712162735,3.54139504686,3.33573345288,3.01977543297,2.58421376453,2.03095667255,1.37235642149,0.629545085604,-0.16999662002,-0.995423333474,-1.81577038793,-2.60311754299,-3.3353159759,-3.99795902313,-4.58536159141,-5.10043837844,-5.55351995175,-5.96029457994,-6.33918698068,-6.70856124469,-7.08415094737,-7.47707245616,-7.89267609109,-8.33035148748,-8.78425136576,-9.24475689252,-9.70040075509,-10.1399079726,-10.5540174483,-10.9368068743,-11.286346966,-11.604637072,-11.896897995,-12.1703963665,-12.4330325872,-12.6919357793,-12.9522784527,-13.2164615561,-13.4837422182,-13.7502978945,-14.0096559939,-14.2533769865,-14.4718653132,-14.6551941454,-14.7938602067,-14.8794230759,-14.9050186105,-14.8657597233,-14.7590457929,-14.5847959042,-14.3456066113,-14.0468197896,-13.6964774679,-13.305142139,-12.88557239,-12.4522604525,-12.0208543279,-11.6074970728,-11.2281170916,-10.8976971814,-10.6295411177,-10.4345503046,-10.3205235408,-10.2915013542,-10.3471907393,-10.4825226385,-10.6874083176,-10.9467668859,-11.2408903692,-11.5461928865,-11.8363576182,-12.0838531053,-12.2617437725,-12.3456731009,-12.3158565321,-12.1588915985,-11.8691833518,-11.4498017939,-10.912638288,-10.2778060465,-9.57232381822,-8.82821421123,-8.08022008454,-7.36337998575,-6.71070107539,-6.1511295101,-5.70795581258,-5.39772218799,-5.2296354012,-5.20544366515,-5.31971319251,-5.56043714924,-5.90991989257,-6.34589419158,-6.84284058051,-7.37347973499,-7.91039758172,-8.42773993289,-8.90288442067,-9.31797098241,-9.66115689184,-9.9274645302,-10.1191118419,-10.2452548662,-10.3211241326,-10.3665957159,-10.4042966626,-10.4573968667,-10.5472793325,-10.6913027827,-10.9008709745,-11.1800008084,-11.5245387215,-11.9221170922,-12.352875908,-12.7909064401,-13.2063095821,-13.5677074093,-13.8450061492,-14.0121836838,-14.0498649726,-13.9474541994,-13.7046135221,-13.3319163242,-12.8505589916,-12.291089361,-11.6911994183,-11.092728224,-10.5381180445,-10.0666487408
5,-13.2164615561,-13.4837422182,-13.7502978945,-14.0096559939,-14.2533769865,-14.4718653132,-14.6551941454,-14.7938602067,-14.8794230759,-14.9050186105,-14.8657597233,-14.7590457929,-14.5847959042,-14.3456066113,-14.0468197896,-13.6964774679,-13.305142139,-12.88557239,-12.4522604525,-12.0208543279,-11.6074970728,-11.2281170916,-10.8976971814,-10.6295411177,-10.4345503046,-10.3205235408,-10.2915013542,-10.3471907393,-10.4825226385,-10.6874083176,-10.9467668859,-11.2408903692,-11.5461928865,-11.8363576182,-12.0838531053,-12.2617437725,-12.3456731009,-12.3158565321,-12.1588915985,-11.8691833518,-11.4498017939,-10.912638288,-10.2778060465,-9.57232381822,-8.82821421123,-8.08022008454,-7.36337998575,-6.71070107539,-6.1511295101,-5.70795581258,-5.39772218799,-5.2296354012,-5.20544366515,-5.31971319251,-5.56043714924,-5.90991989257,-6.34589419158,-6.84284058051,-7.37347973499,-7.91039758172,-8.42773993289,-8.90288442067,-9.31797098241,-9.66115689184,-9.9274645302,-10.1191118419,-10.2452548662,-10.3211241326,-10.3665957159,-10.4042966626,-10.4573968667,-10.5472793325,-10.6913027827,-10.9008709745,-11.1800008084,-11.5245387215,-11.9221170922,-12.352875908,-12.7909064401,-13.2063095821,-13.5677074093,-13.8450061492,-14.0121836838,-14.0498649726,-13.9474541994,-13.7046135221,-13.3319163242,-12.8505589916,-12.291089361,-11.6911994183,-11.092728224,-10.5381180445,-10.0666487408,-9.71082800536,-9.49332546426,-9.42479977285,-9.5028805761,-9.71244155728,-10.027154133,-10.412164715,-10.8276120321,-11.2326103271,-11.5892782531,-11.8663945493,-12.042307653,-12.1068112567,-12.0618121877,-11.9207487294,-11.7068523055,-11.450468163,-11.1857468455,-10.9470760008,-10.7656343548,-10.6664160999,-10.6660012338,-10.771248298,-10.978976497,-11.2766003124,-11.6435942648,-12.0536058012,-12.4770015093,-12.8836217903,-13.2455248806,-13.5395162279,-13.7492798263,-13.8669534781,-13.8940214039,-13.8414368198,-13.7289344328,-13.5835472373,-13.4374017891,-13.3249294497,-13.2796949907,-13.331102625,-13.5012835527,-13.8024871588,-14.235280348,-14.7878013536,-15.4362178057,-16.1464130346,-16.8767844652,-17.5819020656,-18.2166624993,-18.7405029691,-19.1212196113,-19.3379732555,-19.3831566868,-19.262930671,-18.996393072,-18.6135047213,-18.1520351425,-17.6538921446,-17.1612499505,-16.7128877712,-16.341099479,-16.0694461872,-15.9115114995,-15.8706992462,-15.940999778,-16.1085548384,-16.3537812355,-16.653775557,-16.9847184564,-17.3240262308,-17.6520541243,-17.9532313301,-18.2165914774,-18.4357434321,-18.6083949607,-18.735587094,-18.8208136034,-18.8691859027,-18.8867623463,-18.8801009638,-18.856028592,-18.82156072,-18.7838670363,-18.7501655726,-18.7274461745,-18.7219689599,-18.738547332,-18.7796954498,-18.8447815079,-18.9293655828,-19.0249029774,-19.1189570552,-19.1959944904,-19.2387436868,-19.2300017851,-19.1546956232,-19.0019514179,-18.7669135937,-18.4520745447,-18.067928801,-17.6328393792,-17.1720919847,-16.716203882,-16.2986376892,-15.9531355868,-15.7109280668,-15.5980787801,-15.6332039335,-15.8257569874,-16.1750068595,-16.669771173,-17.2889043687,-18.002489369,-18.7736428049,-19.5608162831,-20.3204563428,-21.0098694781,-21.5901229196,-22.0287964694,-22.3023882723,-22.3981730912,-22.3153217294,-22.0651209297,-21.6701888529,-21.1626630165,-20.5814411916,-19.9686711735,-19.3657969418,-18.8095572171,-18.3283787005,-17.9395964022,-17.6478624557,-17.444978034,-17.3112155833,-17.2180133897,-17.1317485656,-17.0181543097,-16.8468634537,-16.5955440241,-16.2531437782,-15.8218690292,-15.317670858,-14.7691780368,-14.2151801995,-13.7009099055,-13.2734863177,-12.9769596815,-12.8474322173,-12.9087273519,-13.1690365327,-13.6188935876,-14.2307152597,-14.9600106773,-15.7482126661,-16.5269327614,-17.2233033198,-17.7659577677,-18.0911257306,-18.1482931519,-17.9049045899,-17.3496665922,-16.4941412031,-15.372483398,-14.0393555537,-12.5662232186,-11.0363781554,-9.5391309453,-8.16365846607,-6.99298230581,-6.09850159992,-5.53542227284,-5.33933062507,-5.52406716565,-6.08097592478,-6.97953762732,-8.16933802787,-9.58326762323,-11.1417885508,-12.7580360533,-14.3434497107,-15.8135645098,-17.0935481137,-18.1230620842,-18.8600600086,-19.2832153017,-19.3927880134,-19.2098784402,-18.7741575571,-18.1402930276,-17.3733916994,-16.5438473092,-15.7220127904,-14.9731111007,-14.3527606352,-13.9034266896,-13.6520258537,-13.6088132676,-13.7675814022,-14.1071012634,-14.5936492909,-15.1843905927,-15.8313344887,-16.4855432102,-17.101260061,-17.6396307711,-18.0717228556,-18.3806034668,-18.5623148548,-18.6256825934,-18.5909957972,-18.4876993146,-18.3513245527,-18.2199497415,-18.1305165877,-18.1153358534,-18.1990896704,-18.3965861036,-18.7114466755,-19.1358175726,-19.6510994303,-20.2295990733,-20.8369286294,-21.4349198082,-21.984787574,-22.4502688093,-22.8004766722,-23.0122476462,-23.0718121359,-22.9756859721,-22.7307530904,-22.3535816765,-21.8690796591,-21.3086437928,-20.7079849658,-20.1048191298,-19.5366001908,-19.0384429056,-18.6413461425,-18.3707853288,-18.2457020287,-18.2778820414,-18.4716844658,-18.8240657775,-19.3248370775,-19.9570993532,-20.697818419,-21.5185236859,-22.3861377436,-23.2639620631,-24.1128542655,-24.8926320688,-25.5637270182,-26.0890871276,-26.4362926233,-26.5798063127,-26.5032352864,-26.2014405482,-25.6823022598,-24.9679358172,-24.095161557,-23.1150602571,-22.0914972933,-21.0985677705,-20.216998503,-19.5296334573,-19.1162181243,-19.0477755222,-19.3809241266,-20.152521324,-21.3750233308,-23.0329338111,-25.0806685881,-27.4420924416,-30.0118858886,-32.6587771964,-35.2305338575,-37.5604592303,-39.4749985563,-40.801940322,-41.3786195127,-41.0595012007,-39.7225536645,-37.2739114842,-33.6504765714,-28.8202988771,-22.7808027392,-15.5551584163,-7.18731676271,2.26359711389,12.7287215367,24.1338873035,36.4022648477,49.4546258916,63.2068845753,77.5649344796,92.4172018027,107.625747079,123.017114874,138.374397124,153.432090241,167.875248976,181.344149652,193.445174921,203.767956274,211.908025662,217.493428832,220.213052007,219.843923495,216.27456836,209.521675536,199.737888252,187.209395505,172.343075644,155.644077386,137.685762448,119.074737852,100.414174127,82.2686898122,65.1337903394,49.4122382048,35.3988975184,23.2746570869,13.1091128913,4.87088968281,-1.5561179147,-6.35265667055,-9.74234594021,-11.9702583079,-13.2835554334,-13.9154388241,-14.0731752054,-13.9304652836,-13.6239936866,-13.2536605488,-12.8857671899,-12.5583085957,-12.2875004122,-12.0747174741,-11.9131230123,-11.7934042984,-11.7081883407,-11.6548813319,-11.6368505669,-11.6630391339,-11.746260596,-11.9005494477,-12.1380297305,-12.4657986332,-12.8833000993,-13.3805883554,-13.9377623462,-14.5257037814,-15.1080911221,-15.6445070713,-16.094324275,-16.4209563002,-16.5960076144,-16.6028514419,-16.4392078512,-16.1183827473,-15.6689552056,-15.1328560903,-14.5619517309,-14.013415874,-13.544322333,-13.20600068,-13.0387512865,-13.0675027233,-13.2989106646,-13.7202494131,-14.3002512884,-14.9918297714,-15.736408204,-16.4693952248,-17.126224123,-17.6483207198,-17.9883880754,-18.1144908761,-18.0125731985,-17.6872289267,-17.1607392701,-16.47057132,-15.6656735535,-14.8019936146,-13.9376750783,-13.1283678487,-12.4230240952,-11.8604651263,-11.4669110318,-11.2545771512,-11.2213661993,-11.3516223297,-11.6178586206,-11.9833162597,-12.4051591593,-12.8380549971,-13.237851524,-13.5650368552,-13.7876843232,-13.8836311297,-13.8417225046,-13.6620580479,-13.3552866313,-12.9410908405,-12.4460652323,-11.9012170845,-11.3393072106,-10.7922146231,-10.2884696445,-9.85107056273,-9.49568647185,-9.22935104888,-9.04975828345,-8.9452677147,-8.89570131855,-8.873960315,-8.84840911322,-8.7858745957,-8.65500789445,-8.42967280849,-8.09197995549,-7.63459305177,-7.06199793621,-6.39053913607,-5.64717591216,-4.86706674991,-4.09023425149,-3.35767143004,-2.70731291182,-2.17030607601,-1.76798009713,-1.50983209622,-1.39273868957,-1.40146951573,-1.51043973385,-1.68650491295,-1.89248805815,-2.09104741759,-2.24845528355,-2.33786825529,-2.34172895536,-2.25304240273,-2.07540548276,-1.82181853125,-1.51245448267,-1.17168414574,-0.824740153916,-0.494436701531,-0.198343667618,0.0532544307473,0.258391899775,0.42335693268,0.56157585605,0.691621411301,0.834620949658,1.0114040954,1.23974980976,1.53206954821,1.89380114845,2.32269593157,2.80907068742,3.3369799295,3.88615572889,4.43447506513,4.96065762142,5.44687605977,5.88097746536,6.25806591449,6.58127508082,6.86165652744,7.11721233603,7.371198305,7.64990524862,7.98018170687,8.38698483868,8.89123403058,9.50819469384,10.2465434993,11.1081712037,12.0886791886,13.1784364377,14.3639992868,15.6296668659,16.958953686,18.3358024653,19.745423921,21.1747219256,22.6123290123,24.0483291222,25.4737767428,26.8801335815,28.2587382622,29.6004055239,30.8952236978,32.1325871657,33.3014678972,34.390900548,35.3906319661,36.2918702123,37.0880607178,37.7756170173,38.354539337,38.8288651186,39.2069099976,39.5012735642,39.7285985157,39.9090824621,40.0657484088,40.2234846094,40.4078702014,40.6438132561,40.9540449809,41.3575379931,41.8679453629,42.4921856063,43.2293204279,44.0698794143,44.9957723658,45.9808911438,46.9924389138,47.9929417956,48.9428087515,49.8032258377,50.5391150897,51.1218659312,51.5315619874,51.7584768874,51.8036919285,51.6787842785,51.4046316709,51.00946391,50.5263529518,49.9903682332,49.4356344106,48.8925199642,48.3851628238,47.9295076857,47.5319919106,47.1889743371,46.8869544452,46.6035782103,46.309372604,45.9700953784,45.5495342463,45.0125445236,44.3280818546,43.4719719686,42.4291669341,41.1952697608,39.7771665108,38.192684334,36.4692889642,34.6419367761,32.7502919614,30.8355944411,28.9375056698,27.0912589795,25.3253971771,23.6602990437,22.1075905311,20.6704214894,19.3444811744,18.1195409188,16.9812623214,15.9130009386,14.8973688668,13.9173881783,12.9571586474,12.002061774,11.0386120265,10.0541306719,9.03644703921,7.97382188969,6.8552395731,5.67113784128,4.41454942705,3.08253333466,1.67769213992,0.209518527997,-1.30469997013,-2.83965984322,-4.36267499409,-5.83523159412,-7.21540833369,-8.4609817966,-9.53293011401,-10.3989759535,-11.036784014,-11.4364527839,-11.6020112684,-11.5517373531,-11.3172396363,-10.9413720251,-10.4751649686,-9.97404733071,-9.49369165425,-9.08584063944,-8.79446560437,-8.65257233789,-8.67991081232,-8.88176749802,-9.24892759548,-9.75879541234,-10.37756182,-11.06321687,-11.7691322953,-12.4478911554,-13.0550267143,-13.5523528007,-13.9106219768,-14.1113294578,-14.1475786306,-14.0240235431,-13.7559897152,-13.3679351154,-12.8914424182,-12.3629331589,-11.8212717002,-11.3053929735,-10.8520536784,-10.493779971,-10.2570692185,-10.1608986888,-10.21559691,-10.4221391698,-10.7719315065,-11.24714123,-11.8216108181,-12.4623536842,-13.1315782433,-13.789129661,-14.3951874841,-14.9130211573,-15.3115895676,-15.567776415,-15.6680784566,-15.6096050154,-15.400300771,-15.0583659822,-14.6109147561,-14.0919777114,-13.5400142962,-12.9951454256,-12.4963426315,-12.0788110311,-11.7717788616,-11.59685863,-11.5670798896,-11.6866192072,-11.9511781479,-12.3488945496,-12.8616249483,-13.4664139218,-14.1369732429,-14.8450293355,-15.5614553843,-16.2571732745,-16.9038760498,-17.4746696569,-17.9447525715,-18.2922380651,-18.4991774041,-18.5527708888,-18.4466712555,-18.1822087069,-17.7693173151,-17.2269328401,-16.5826676343,-15.8716446166,-15.1344761654,-14.4144876928,-13.7543922652,-13.1927078512,-12.760262836,-12.4771528567,-12.3504911616,-12.3732372223,-12.5242983712,-12.7699829741,-13.0667496085,-13.3650561268,-13.613979462,-13.7661679241,-13.7826194776,-13.6367667736,-13.317401321,-12.83008477,-12.196863647,-11.4543038157,-10.6500641436,-9.83840479902,-9.07514710751,-8.41265064074,-7.89534340944,-7.55624046081,-7.41473445032,-7.47576620927,-7.73031333066,-8.15699578202,-8.72450645112,-9.39453758364,-10.1248871989,-10.8724806013,-11.5961140686,-12.2588026638,-12.8296766083
5,-9.24892759548,-9.75879541234,-10.37756182,-11.06321687,-11.7691322953,-12.4478911554,-13.0550267143,-13.5523528007,-13.9106219768,-14.1113294578,-14.1475786306,-14.0240235431,-13.7559897152,-13.3679351154,-12.8914424182,-12.3629331589,-11.8212717002,-11.3053929735,-10.8520536784,-10.493779971,-10.2570692185,-10.1608986888,-10.21559691,-10.4221391698,-10.7719315065,-11.24714123,-11.8216108181,-12.4623536842,-13.1315782433,-13.789129661,-14.3951874841,-14.9130211573,-15.3115895676,-15.567776415,-15.6680784566,-15.6096050154,-15.400300771,-15.0583659822,-14.6109147561,-14.0919777114,-13.5400142962,-12.9951454256,-12.4963426315,-12.0788110311,-11.7717788616,-11.59685863,-11.5670798896,-11.6866192072,-11.9511781479,-12.3488945496,-12.8616249483,-13.4664139218,-14.1369732429,-14.8450293355,-15.5614553843,-16.2571732745,-16.9038760498,-17.4746696569,-17.9447525715,-18.2922380651,-18.4991774041,-18.5527708888,-18.4466712555,-18.1822087069,-17.7693173151,-17.2269328401,-16.5826676343,-15.8716446166,-15.1344761654,-14.4144876928,-13.7543922652,-13.1927078512,-12.760262836,-12.4771528567,-12.3504911616,-12.3732372223,-12.5242983712,-12.7699829741,-13.0667496085,-13.3650561268,-13.613979462,-13.7661679241,-13.7826194776,-13.6367667736,-13.317401321,-12.83008477,-12.196863647,-11.4543038157,-10.6500641436,-9.83840479902,-9.07514710751,-8.41265064074,-7.89534340944,-7.55624046081,-7.41473445032,-7.47576620927,-7.73031333066,-8.15699578202,-8.72450645112,-9.39453758364,-10.1248871989,-10.8724806013,-11.5961140686,-12.2588026638,-12.8296766083,-13.2854114219,-13.6111941541,-13.8012263765,-13.858753755,-13.7956033598,-13.6312135617,-13.3911634447,-13.1052491284,-12.8052068766,-12.5222365202,-12.2845214055,-12.1149628166,-12.029342162,-12.035093123,-12.1308130803,-12.3065759363,-12.5450349972,-12.8232317424,-13.1149591795,-13.3934711203,-13.6342852824,-13.8178037866,-13.931475301,-13.9712540697,-13.9421744169,-13.8579513984,-13.739628852,-13.6134097708,-13.5079033724,-13.4510931424,-13.4673604207,-13.5748857354,-13.783698954,-14.0945685201,-14.4988213709,-14.9790808505,-15.5108117764,-16.0644806344,-16.608083968,-17.10977556,-17.5403345443,-17.8752585094,-18.0963297614,-18.1925778971,-18.1606354117,-18.0045444587,-17.7351147914,-17.3689523707,-16.9272760887,-16.4346208125,-15.9174954653,-15.4030339644,-14.9176535115,-14.4857259004,-14.1282759406,-13.8617443748,-13.6968835414,-13.6378823041,-13.6818321902,-13.8186420694,-14.031481915,-14.2977903703,-14.590822902,-14.8816559798,-15.1415067127,-15.3441840768,-15.4684621818,-15.5001601173,-15.4337268054,-15.2731619223,-15.0321536067,-14.7333776253,-14.406976441,-14.0883137202,-13.8151720727,-13.6246205414,-13.5498157499,-13.6170113485,-13.8430329951,-14.2334336469,-14.7814834991,-15.4680795005,-16.2625893219,-17.1245793638,-18.0063179125,-18.8558928658,-19.6207387479,-20.2513319985,-20.7047906041,-20.9481086378,-20.9607720366,-20.7365406572,-20.2842417544,-19.6274962557,-18.8033834389,-17.8601329474,-16.8540079758,-15.8456045492,-14.8958353533,-14.0618896835,-13.3934618102,-12.9295181286,-12.695830937,-12.7034478953,-12.948196733,-13.4112502957,-14.0607026591,-14.8540371571,-15.741305148,-16.6687827086,-17.5828334076,-18.4336816525,-19.1787966871,-19.7856066082,-20.2333081954,-20.5136120962,-20.6303593511,-20.5980550455,-20.4394755986,-20.1826044897,-19.8572248738,-19.4915371127,-19.1091692966,-18.7269083962,-18.3534023464,-17.9889766808,-17.6265841607,-17.2537752822,-16.8554558917,-16.4170995014,-15.9280187535,-15.3842817938,-14.7908888679,-14.1628998567,-13.5253165247,-12.9116612184,-12.3613411564,-11.9160277328,-11.6153974847,-11.4926621488,-11.570350681,-11.8567933098,-12.34369978,-13.0051289497,-13.7980255697,-14.6643634623,-15.5347920854,-16.3335442777,-16.9842364562,-17.4160907516,-17.5700446306,-17.4041980576,-16.8980860498,-16.0553535119,-14.9045411606,-13.49785353,-11.9079576362,-10.2230382628,-8.54049731597,-6.95981521879,-5.57517850989,-4.46850940331,-3.7035041522,-3.32119745043,-3.33742638552,-3.74238334875,-4.50224273457,-5.56264494653,-6.85364726568,-8.29562520855,-9.80554405899,-11.3030232923,-12.7156820515,-13.983368838,-15.0610248059,-15.9200870133,-16.5484861466,-16.9494166316,-17.1391452389,-17.1441730979,-16.9980770062,-16.7383345147,-16.4033910193,-16.0301641432,-15.6521092823,-15.297898152,-14.9906964605,-14.7479728849,-14.5817331686,-14.4990524847,-14.5027762811,-14.5922723128,-14.7641402503,-15.012815385,-15.3310352301,-15.710168428,-16.1404306855,-16.611029489,-17.110286615,-17.625785219,-18.1445780885,-18.6534778973,-19.1394321975,-19.5899690078,-19.9936861762,-20.3407508032,-20.6233737521,-20.836227105,-20.9767772038,-21.0455108537,-21.0460365432,-20.9850462097,-20.8721267113,-20.7194145736,-20.5410935448,-20.3527423708,-20.1705499024,-20.0104259061,-19.8870482545,-19.8128993056,-19.7973541799,-19.8458889931,-19.9594763242,-20.1342281575,-20.3613345776,-20.6273315838,-20.9147148699,-21.2028978566,-21.4694894825,-21.6918376123,-21.8487468334,-21.9222384846,-21.8991843775,-21.7726251619,-21.5425902091,-21.2162740168,-20.8074929092,-20.335436251,-19.8228242143,-19.2936732819,-18.770937004,-18.2743233821,-17.8185869912,-17.4125532072,-17.0590568875,-16.7558752824,-16.4976146879,-16.2783840818,-16.0949687526,-15.9501145017,-15.8554602951,-15.8336267654,-15.9189919893,-16.1567737579,-16.6001916527,-17.3056950245,-18.3264950212,-19.704900001,-21.4641870541,-23.6009099421,-26.0786127558,-28.823867172,-31.7253728574,-34.6365666244,-37.3818055979,-39.7657677337,-41.5853045761,-42.6426435895,-42.7586215655,-41.7845723532,-39.6116062755,-36.1762958208,-31.4621902392,-25.4970698522,-18.3463576463,-10.1035676353,-0.879030191617,9.21164831287,20.0578853883,31.5618016677,43.6421892714,56.2341058815,69.283953587,82.7404674677,96.5425894251,110.605677411,124.807841658,138.978359301,152.890063264,166.257317741,178.740693274,189.958778786,199.506780129,206.980739504,212.00546435,214.263677673,213.523581983,209.662026328,202.680798693,192.714203471,180.026948489,165.002346204,148.121801838,129.93739629,111.039977587,92.025493546,73.4623156757,55.8620454344,39.6558142286,25.1774612236,12.654277135,2.20531361206,-6.15335785742,-12.4975463228,-16.9794484178,-19.809382142,-21.2363801593,-21.5291484835,-20.9586606504,-19.7833495881,-18.2375170985,-16.5232382957,-14.8057237258,-13.2118372975,-11.8312696871,-10.7197442273,-9.90358769706,-9.38502604222,-9.14765101011,-9.16162783923,-9.38835379885,-9.78441162964,-10.3047750952,-10.9053067283,-11.5446375962,-12.1855380506,-12.7958833933,-13.3492975284,-13.8255296088,-14.2105911434,-14.4966601944,-14.6817492474,-14.7691357936,-14.7665689184,-14.6852880464,-14.5389161955,-14.3423132578,-14.1104888973,-13.857675133,-13.5966434129,-13.33832065,-13.0917168165,-12.8641293761,-12.6615450918,-12.4891263264,-12.3516545661,-12.2538129145,-12.2002210765,-12.1951850856,-12.2421803107,-12.3431394605,-12.4976580501,-12.7022520443,-12.9498039942,-13.2293159969,-13.5260533162,-13.8221160147,-14.097423254,-14.3310427048,-14.5027522492,-14.5946880461,-14.5929154508,-14.4887589224,-14.2797438826,-13.9700357691,-13.5703059764,-13.09700691,-12.5710950226,-12.016298114,-11.457077911,-10.9164857892,-10.4141405909,-9.9645636844,-9.57608082969,-9.25044181031,-8.98322298813,-8.76497679503,-8.58299103587,-8.42343529449,-8.27361475174,-8.12403232181,-7.96998228014,-7.81246064985,-7.6582708178,-7.51931224864,-7.41114779759,-7.35103436979,-7.35566073181,-7.43885967918,-7.60955035996,-7.87012650985,-8.21544719643,-8.63251886017,-9.10089025203,-9.59372199947,-10.0794433242,-10.5238699146,-10.8926271424,-11.1536998228,-11.2799134533,-11.2511446302,-11.0560643412,-10.6932418311,-10.1714818207,-9.50933317482,-8.73378695317,-7.87826649698,-6.98009047105,-6.0776506425,-5.20758055199,-4.40219325519,-3.68743481392,-3.0815394255,-2.5944906102,-2.22830133704,-1.97803463304,-1.83340408418,-1.78072866904,-1.80497570805,-1.8916150328,-2.02802998553,-2.20428666451,-2.4131486084,-2.64933245915,-2.90811892134,-3.18354609445,-3.46650044947,-3.74306714139,-3.99349374303,-4.19205563366,-4.30799285618,-4.30753270365,-4.15684252677,-3.82559985929,-3.2907476495,-2.53994142511,-1.57420374748,-0.409379429396,0.92387794731,2.38168085204,3.90994435792,5.44860296616,6.93657846018,8.31697438504,9.54194168925,10.5766967397,11.402272916,12.0167379071,12.4347909506,12.6858424964,12.8108464669,12.8582792466,12.8797253278,12.9255341039,13.0409626149,13.2631276758,13.6189724036,14.1243222831,14.7839809018,15.592710843,16.5368728584,17.5964624713,18.747287221,19.963063634,21.2172700483,22.4846565502,23.7423737706,24.9707288875,26.1536064186,27.2786055607,28.3369504299,29.3232298723,30.2350225111,31.0724607901,31.8377839634,32.5349228634,33.1691479921,33.7467973075,34.2750828351,34.7619588013,35.2160212157,35.6464018775,36.06261998,36.4743622804,36.8911772542,37.3220872315,37.7751416959,38.2569511451,38.7722511972,39.3235488849,39.9108962417,40.531820784,41.1814207094,41.8526089135,42.5364697298,43.2226807396,43.8999522974,44.5564496055,45.180182595,45.7593710421,46.2828089296,46.7402571492,47.1228843227,47.4237525233,47.6383123404,47.7648373071,47.8047001506,47.7623818716,47.6451172173,47.4621211055,47.223408211,46.9383023397,46.6138162815,46.2531461322,45.8545485659,45.4108448305,44.9097216384,44.3348875231,43.668012023,42.8912460884,41.9900167893,40.9557255012,39.787967666,38.4959372208,37.0987742888,35.6247470937,34.1093088281,32.5922154752,31.1140109135,29.7122652999,28.4179826873,27.252572502,26.2257122218,25.33432623,24.5627826051,23.8842809892,23.2632853445,22.6587575857,22.0278799995,21.3299195958,20.529885441,19.6016573824,18.5303171087,17.3134851456,15.961553583,14.4967961094,12.9514273589,11.3647688868,9.77975732271,8.23909722473,6.78140858282,5.43773675707,4.2287732998,3.1630774631,2.23649434755,1.43284629914,0.725842958631,0.0820275942639,-0.535532623383,-1.16318540183,-1.83267766118,-2.56760401855,-3.38069772416,-4.27226203677,-5.22992598478,-6.2297711997,-7.23873004984,-8.21801555622,-9.12722637978,-9.92868947181,-10.5915693017,-11.095291688,-11.4319018856,-11.6070934381,-11.6397923262,-11.560341445,-11.4074836542,-11.2244702485,-11.0547128883,-10.937442936,-10.9038392299,-10.9740342043,-11.155314025,-11.4417008322,-11.8149576423,-12.2469043512,-12.7027925345,-13.1453725828,-13.5392120249,-13.8547971374,-14.0719737415,-14.182354253,-14.1904286124,-14.1132552874,-13.9787611221,-13.8228296127,-13.685489634,-13.6066151169,-13.6215985114,-13.7574607108,-14.0298083236,-14.4409535468,-14.9793853002,-15.6206379959,-16.3294614955,-17.0630660036,-17.7751100901,-18.4200276539,-18.9572569823,-19.3549459603,-19.5927620006,-19.663528828,-19.5735359876,-19.3415089913,-18.9963745879,-18.5740910751,-18.1139205464,-17.6545816379,-17.2307254882,-16.8701211017,-16.5918267832,-16.405478929,-16.3116712047,-16.3032506744,-16.3672451689,-16.4870748709,-16.644699081,-16.8224043843,-17.0040405789,-17.1756353325,-17.3254437122,-17.4435922194,-17.5215422275,-17.5516157383,-17.5267957114,-17.440939441,-17.2894387015,-17.0702427541,-16.7850519449,-16.4404131806,-16.0484222242,-15.6267705727,-15.1979638887,-14.7876703423,-14.4223083007,-14.1261274225,-13.9181501723,-13.8094018922,-13.8008548777,-13.8824436297,-14.0333831991,-14.2238577363,-14.4179651624,-14.5776314079,-14.667067194,-14.6572501714,-14.5298868193,-14.2803456893,-13.9191529371,-13.4717925683,-12.9767414401,-12.4818719824,-12.0395504487,-11.7009226228,-11.5099932971,-11.4981568861,-11.6798166438,-12.0496379854,-12.5818233073,-13.2315851175,-13.9387524592,-14.6331997483,-15.2415671428,-15.6945758904,-15.9341536487,-15.9195874983,-15.6320188064,-15.0767742183,-14.2832688057,-13.302489973,-12.2023397019,-11.0613455596,-9.96142070574,-8.98044114772,-8.18540601097
5,-0.535532623383,-1.16318540183,-1.83267766118,-2.56760401855,-3.38069772416,-4.27226203677,-5.22992598478,-6.2297711997,-7.23873004984,-8.21801555622,-9.12722637978,-9.92868947181,-10.5915693017,-11.095291688,-11.4319018856,-11.6070934381,-11.6397923262,-11.560341445,-11.4074836542,-11.2244702485,-11.0547128883,-10.937442936,-10.9038392299,-10.9740342043,-11.155314025,-11.4417008322,-11.8149576423,-12.2469043512,-12.7027925345,-13.1453725828,-13.5392120249,-13.8547971374,-14.0719737415,-14.182354253,-14.1904286124,-14.1132552874,-13.9787611221,-13.8228296127,-13.685489634,-13.6066151169,-13.6215985114,-13.7574607108,-14.0298083236,-14.4409535468,-14.9793853002,-15.6206379959,-16.3294614955,-17.0630660036,-17.7751100901,-18.4200276539,-18.9572569823,-19.3549459603,-19.5927620006,-19.663528828,-19.5735359876,-19.3415089913,-18.9963745879,-18.5740910751,-18.1139205464,-17.6545816379,-17.2307254882,-16.8701211017,-16.5918267832,-16.405478929,-16.3116712047,-16.3032506744,-16.3672451689,-16.4870748709,-16.644699081,-16.8224043843,-17.0040405789,-17.1756353325,-17.3254437122,-17.4435922194,-17.5215422275,-17.5516157383,-17.5267957114,-17.440939441,-17.2894387015,-17.0702427541,-16.7850519449,-16.4404131806,-16.0484222242,-15.6267705727,-15.1979638887,-14.7876703423,-14.4223083007,-14.1261274225,-13.9181501723,-13.8094018922,-13.8008548777,-13.8824436297,-14.0333831991,-14.2238577363,-14.4179651624,-14.5776314079,-14.667067194,-14.6572501714,-14.5298868193,-14.2803456893,-13.9191529371,-13.4717925683,-12.9767414401,-12.4818719824,-12.0395504487,-11.7009226228,-11.5099932971,-11.4981568861,-11.6798166438,-12.0496379854,-12.5818233073,-13.2315851175,-13.9387524592,-14.6331997483,-15.2415671428,-15.6945758904,-15.9341536487,-15.9195874983,-15.6320188064,-15.0767742183,-14.2832688057,-13.302489973,-12.2023397019,-11.0613455596,-9.96142070574,-8.98044114772,-8.18540601097,-7.62685640408,-7.33506464633,-7.31829136227,-7.56317176394,-8.03706413047,-8.69200030365,-9.46974115659,-10.307371526,-11.1428700247,-11.9201499069,-12.5931708857,-13.1288491832,-13.5086265625,-13.7286850803,-13.7989037668,-13.7407416527,-13.5842973519,-13.3648396951,-13.1191277668,-12.8818420213,-12.6824298798,-12.5426286454,-12.4748668955,-12.4816664656,-12.5560768406,-12.6830798301,-12.8418128636,-13.0083815916,-13.1589728985,-13.2729427545,-13.3355436244,-13.3399772497,-13.2885136934,-13.1925071581,-13.0712589008,-12.9498167453,-12.8559421714,-12.8165985574,-12.8543963747,-12.9844559967,-13.2121081793,-13.5317493276,-13.9270173632,-14.3722765942,-14.8352231644,-15.2802733638,-15.6722981354,-15.9802332676,-16.1801296735,-16.2573036593,-16.2073849655,-16.0362166136,-15.7587103054,-15.3968830825,-14.9773806279,-14.5288234696,-14.079295409,-13.6542358078,-13.2749104787,-12.9575345294,-12.7130207124,-12.5472439125,-12.4616582417,-12.4540842397,-12.5194997285,-12.6507123168,-12.838852851,-13.0736935548,-13.3438493108,-13.6369556524,-13.939926828,-14.2393806595,-14.5222777201,-14.7767687484,-14.9931866981,-15.1650686176,-15.290056075,-15.3705072434,-15.4136633182,-15.4312488659,-15.4384493036,-15.4522940389,-15.4895709303,-15.5644920868,-15.6864050887,-15.857880084,-16.0734889735,-16.3195237081,-16.5747829531,-16.8124062452,-17.0025753239,-17.1157597123,-17.1260831093,-17.0143488674,-16.7702974954,-16.3937750714,-15.8946537963,-15.2915385513,-14.6094831682,-13.8770932627,-13.1234808893,-12.3755436649,-11.6559660463,-10.9821969833,-10.3664726833,-9.81676005455,-9.33833112019,-8.93557105619,-8.61359066086,-8.37926164482,-8.24140924408,-8.21005866748,-8.29481019554,-8.50258152385,-8.83507866444,-9.28642036198,-9.84133805001,-10.4743065977,-11.1498416904,-11.8240452478,-12.4473127955,-12.9679602021,-13.3364043088,-13.5094597891,-13.4543011823,-13.1516823559,-12.5980947425,-11.8066640228,-10.8067145558,-9.64205634968,-8.36815970918,-7.04847108091,-5.75018581961,-4.53982670455,-3.47897914882,-2.620505224,-2.00550196602,-1.66119136825,-1.59983898197,-1.81870544156,-2.30095102136,-3.01734697648,-3.92860551791,-4.98812451806,-6.14494941633,-7.34677508708,-8.54283543205,-9.68655091615,-10.7378206409,-11.6648567253,-12.4454697829,-13.0677326396,-13.5299818245,-13.8401650647,-14.0146033739,-14.0762969785,-14.052950486,-13.9749114021,-13.8732010852,-13.7777715838,-13.7160576403,-13.7118284195,-13.7842965449,-13.9474252845,-14.209390657,-14.5721955363,-15.0314814007,-15.576621304,-16.1911887825,-16.853872973,-17.53985146,-18.222550667,-18.8756380463,-19.4750229593,-20.0006133075,-20.4375936888,-20.7770575307,-21.0159279767,-21.156219575,-21.203801235,-21.1668992732,-21.0546133948,-20.8757030653,-20.6378411539,-20.3474381238,-20.0100308315,-19.631124557,-19.2172930903,-18.7772929496,-18.322941096,-17.8695407679,-17.4357108974,-17.0425695463,-16.7123261161,-16.466434627,-16.3235361933,-16.2974614035,-16.3955662096,-16.6176376528,-16.9555339202,-17.3936277079,-17.9100170411,-18.4783690084,-19.0701830278,-19.6572110892,-20.2137579374,-20.7186047556,-21.156351864,-21.518051921,-21.801094868,-22.0083976501,-22.1470338623,-22.2265005426,-22.2568535424,-22.246945536,-22.2029735757,-22.1274933743,-22.0189957772,-21.8720780474,-21.6781869078,-21.4268660589,-21.1074084228,-20.7107904223,-20.2317491581,-19.6708509367,-19.0363899868,-18.3459492199,-17.6274513461,-16.9195305543,-16.2710660566,-15.7397443573,-15.3895626584,-15.2872550961,-15.4977166466,-16.0786118013,-17.0744764154,-18.5107366581,-20.3881608656,-22.6783100395,-25.3205451836,-28.2210748605,-31.2543827496,-34.267170624,-37.0847048998,-39.51919145,-41.3795567784,-42.4818189467,-42.6591202218,-41.7704873515,-39.7074933408,-36.3982099268,-31.808141195,-25.9381818517,-18.8200055748,-10.509612965,-1.0800111256,9.38587672805,20.8009835409,33.0776157375,46.1280587772,59.8619956291,74.1809058726,88.9700688325,104.089209808,119.363152607,134.574029082,149.456612867,163.698170515,176.943857983,188.808154189,198.892159714,206.805863257,212.193774798,214.761735886,214.302335796,210.716262673,204.027144142,194.387978689,182.078072221,167.490372225,151.110103774,133.486520343,115.200269582,96.8292599196,78.9159663565,61.9388486278,46.2900258851,32.2606381294,20.0345168844,9.68997833489,1.2088260535,-5.5089230521,-10.6264490834,-14.3496862502,-16.9069707642,-18.5304687165,-19.4406777075,-19.8348196672,-19.8794479297,-19.7071365926,-19.4167489494,-19.0765216905,-18.7290623562,-18.397333944,-18.090776373,-17.8108664268,-17.5556188011,-17.3227527542,-17.111464528,-16.9229316891,-16.759814687,-16.6251043408,-16.5206911538,-16.4460095065,-16.3970472435,-16.36592127,-16.3411154759,-16.308371599,-16.2521288381,-16.1573343308,-16.0114003785,-15.8060671826,-15.5389395052,-15.2144977527,-14.8444339873,-14.4472273165,-14.0469470564,-13.6713512625,-13.34942643,-13.1085836408,-12.9717788024,-12.9548523221,-13.0643813093,-13.2963029825,-13.6355025749,-14.0564673271,-14.524998293,-15.0008552783,-15.4411016396,-15.8038302195,-16.0519027892,-16.1563313716,-16.0989716365,-15.8742790148,-15.4899837111,-14.9666547253,-14.3362293457,-13.6396708974,-12.9239764768,-12.2387858299,-11.6328450126,-11.1505603599,-10.8288484416,-10.6944551127,-10.7618879612,-11.0320832829,-11.4919078898,-12.1145705757,-12.8609799767,-13.6820294696,-14.5217156779,-15.3209118047,-16.0215330683,-16.5707649944,-16.9249915849,-17.0530697591,-16.9386509748,-16.5813435477,-15.9966256199,-15.2145412442,-14.2773237131,-13.2361783713,-12.147514831,-11.0689445714,-10.0553572888,-9.15536309254,-8.40834292634,-7.84229100665,-7.47256469744,-7.30158318711,-7.31944115869,-7.50533275741,-7.82962094837,-8.25634439661,-8.74593337543,-9.25790987272,-9.75337312526,-10.1971149525,-10.5592620569,-10.8163970996,-10.9521601359,-10.957372161,-10.8297505813,-10.5733020269,-10.1974822722,-9.71620826598,-9.14679598863,-8.50888293088,-7.82337837864,-7.11147121934,-6.39371597339,-5.68921430203,-5.01491060129,-4.38502398717,-3.81064180727,-3.2994989749,-2.85596103954,-2.48121614137,-2.17366230636,-1.92945411113,-1.743150464,-1.6083877223,-1.51849344856,-1.46695790862,-1.44769334382,-1.4550345044,-1.48346678493,-1.52710874421,-1.57902057701,-1.63045390913,-1.67019383671,-1.68416316428,-1.6554535319,-1.56491319609,-1.39235591724,-1.11836517628,-0.726564390091,-0.206122945018,0.445812482101,1.22211528451,2.1044537673,3.06313431164,4.05819771378,5.04181273922,5.96185452343,6.76640476961,7.40878488875,7.85264605985,8.07659896868,8.07787278427,7.87454715455,7.50600137786,7.03136925109,6.52597076926,6.07590073785,5.77116944987,5.69798519878,5.93091300161,6.52571173523,7.51362515671,8.89777701963,10.6521085247,12.7230237334,15.0336111272,17.4900262557,19.9893870579,22.4283771002,24.7116885604,26.759470412,28.513071218,29.9385643619,31.0277932197,31.7969464129,32.2829381581,32.538095836,32.6238202393,32.6039649148,32.5386710119,32.4792960014,32.4649029219,32.520555799,32.6574276437,32.874503211,33.1614797297,33.5023575555,33.8791802371,34.2754277426,34.678673172,35.082258908,35.4859057588,35.8953129551,36.320918908,36.7760625227,37.2748121126,37.8297206945,38.4497342861,39.1384364628,39.8927684264,40.7023249622,41.5492926262,42.4090621626,43.2515059384,44.0428592484,44.748083255,45.3335243826,45.7696314157,46.0334592464,46.1106863538,45.996906057,45.6980184293,45.2296446189,44.615597679,43.8855592125,43.07221214,42.2081504491,41.3229150294,40.4404858638,39.5774981277,38.7423531803,37.9352795002,37.1492793614,36.3717899574,35.5868062931,34.7771679498,33.9267089228,33.0220095347,32.0535656948,31.0162909285,29.9093736106,28.7356075878,27.5003834525,26.2105605907,24.8734345277,23.4959744946,22.0844416903,20.6444211953,19.1812225721,17.7005377043,16.2091987473,14.7158602738,13.2314405332,11.769195792,10.3443623068,8.97337109272,7.67270801052,6.45754478787,5.34029905999,4.32929183902,3.42766107982,2.63266437033,1.93546715655,1.32146990334,0.771181663883,0.261600825844,-0.231982335133,-0.733890713994,-1.26584194482,-1.84480650245,-2.48115999591,-3.17734525358,-3.9272319613,-4.71630440435,-5.52272296192,-6.31920103174,-7.07553115408,-7.76150120958,-8.3498820404,-8.81915438308,-9.15567872738,-9.35508914149,-9.42279553088,-9.37358901866,-9.23044439379,-9.02268902625,-8.78375273411,-8.54872724268,-8.35195118267,-8.2248037938,-8.19384509244,-8.27938926543,-8.49454802425,-8.84473787248,-9.32761506026,-9.93338726673,-10.6454506523,-11.441309797,-12.2937487834,-13.1722268533,-14.044466332,-14.8781822487,-15.6428753496,-16.3115803124,-16.8624387246,-17.2799610795,-17.5558596365,-17.6893748511,-17.6870762334,-17.5621827077,-17.3335040974,-17.0241416724,-16.6600937838,-16.2688914639,-15.8783450609,-15.5154291003,-15.2052840211,-14.9702840744,-14.8291186975,-14.7958600606,-14.8790343379,-15.08076562,-15.3961050629,-15.8126819915,-16.3108110914,-16.8641589134,-17.4410171329,-18.0061570269,-18.5231602851,-18.957047882,-19.2769730472,-19.4587158515,-19.4867214915,-19.3554633054,-19.0699808065,-18.6455332123,-18.1064069105,-17.4840065963,-16.8144316056,-16.1357824836,-15.485454465,-14.8976556855,-14.4013438166,-14.0187131532,-13.7642943104,-13.6446604138,-13.6586760088,-13.7981843019,-14.049007465,-14.3921323799,-14.8049667406,-15.2625737784,-15.7388243729,-16.207439068,-16.6429245259,-17.0214335098,-17.3215893538,-17.5253116656,-17.6186591753,-17.5926712375,-17.4441482824,-17.1762732923,-16.7989521829,-16.3287501987,-15.7883288379,-15.2053415022,-14.610817573,-14.0371410688,-13.5157971746,-13.0751049461,-12.7381683048,-12.5212563272,-12.4327705209,-12.4728803462,-12.6338224265,-12.9007789276,-13.2531897871,-13.6663204753,-14.1129045725,-14.5647058597,-14.9938908518,-15.3741602239,-15.6816458531,-15.8956288339,-15.9991637047,-15.9796988848,-15.8297609458,-15.5477239917,-15.1386231085,-14.614904128,-13.99694452,-13.3131461267,-12.5994015139,-11.8977783619,-11.2543490025
