1,-12.3031312254,-12.6965901642,-13.0735209221,-13.4148453653,-13.7066788929,-13.9411901488,-14.1167424705,-14.2373454524,-14.3115220714,-14.3507544949,-14.3677055745,-14.3744229758,-14.3807214244,-14.3929094191,-14.4129840268,-14.4383653753,-14.4621858076,-14.4740921669,-14.4614680013,-14.4109400024,-14.3100036655,-14.1485904055,-13.9204045591,-13.6238844081,-13.2626844077,-12.8456310607,-12.3861649675,-11.9013383128,-11.4104830314,-10.9336947401,-10.4902886295,-10.0973761988,-9.7686887655,-9.51373950903,-9.33737562158,-9.23973096566,-9.21655165851,-9.25983530317,-9.35870137392,-9.50039705943,-9.67134040817,-9.85811049427,-10.0483106729,-10.2312526559,-10.3984322576,-10.5437887014,-10.6637561712,-10.7571285217,-10.8247666545,-10.8691842289,-10.8940518164,-10.9036625289,-10.9024033123,-10.8942749182,-10.8824992887,-10.869245195,-10.8554917709,-10.841036471,-10.8246410418,-10.8042981,-10.7775924156,-10.7421243602,-10.6959574165,-10.638047048,-10.5686054207,-10.489356763,-10.4036429228,-10.3163488863,-10.233633779,-10.1624731861,-10.110041379,-10.0829841422,-10.0866508912,-10.1243654583,-10.1968161091,-10.3016364751,-10.4332315277,-10.5828793153,-10.7391132961,-10.8883647867,-11.0158230581,-11.1064540992,-11.1461089922,-11.1226484575,-11.0270095321,-10.8541415146,-10.6037399974,-10.280710207,-9.89529596666,-9.46282173965,-9.00301590667,-8.53891554152,-8.09539524329,-7.69741028917,-7.36809013736,-7.12685405827,-6.98773931091,-6.95812868389,-7.03803581087,-7.22005424458,-7.49000477576,-7.82823381345,-8.21143516626,-8.61480008189,-9.01425635131,-9.38854423939,-9.7208981803,-10.0001562187,-10.2211961233,-10.3846859612,-10.4962242842,-10.5650185923,-10.6023008747,-10.6196998755,-10.6277794262,-10.6349131815,-10.6466052887,-10.6652943179,-10.6906061372,-10.7199616234,-10.7494057232,-10.7745097794,-10.7912085087,-10.7964615055,-10.7886692927,-10.7678183721,-10.735372034,-10.6939585445,-10.6469314997,-10.5978860701,-10.5502093916,-10.506726018,-10.4694749754,-10.4396292923,-10.4175466301,-10.4029232613,-10.3950134727,-10.3928718277,-10.3955760639,-10.4023937084,-10.4128658964,-10.4267968576,-10.4441554238,-10.4649129695,-10.4888569734,-10.5154275383,-10.5436235192,-10.5720149868,-10.5988810758,-10.6224696245,-10.6413508823,-10.6548159283,-10.6632554595,-10.6684499055,-10.6737090979,-10.6838180026,-10.7047709758,-10.7433061876,-10.8062799473,-10.8999440989,-11.0292056616,-11.1969542884,-11.4035385166,-11.6464562035,-11.920300014,-12.2169692322,-12.5261293371,-12.8358751781,-13.1335351821,-13.4065439992,-13.6433092068,-13.8340033655,-13.9712244895,-14.0504835668,-14.0704940785,-14.0332526464,-13.9439104377,-13.8104423076,-13.6431274084,-13.4538643423,-13.255357382,-13.0602258517,-12.8801021833,-12.7247916448,-12.6015667566,-12.5146621983,-12.4650224507,-12.4503356622,-12.4653646483,-12.5025610456,-12.5529227999,-12.6070295077,-12.6561660229,-12.6934245618,-12.7146631018,-12.7191978712,-12.7101243168,-12.6941957361,-12.6812391934,-12.6831472387,-12.7125410904,-12.781245989,-12.8987448622,-13.0707792349,-13.2982479125,-13.5765189653,-13.8952248161,-14.2385595186,-14.5860470462,-14.9137051518,-15.1954966107,-15.4049423899,-15.5167703339,-15.5084857332,-15.3617716587,-15.0636515161,-14.6073689659,-13.9929578816,-13.2274861642,-12.3249630245,-11.3059028571,-10.1965442303,-9.02773339261,-7.83349966084,-6.64937409529,-5.51052988763,-4.44984860714,-3.49603636338,-2.6719239666,-1.9930821386,-1.46686520358,-1.09196543855,-0.858519255346,-0.74876162367,-0.738182893347,-0.797106956126,-0.892583321945,-0.990467876096,-1.05755686346,-1.06363546888,-0.983306336732,-0.797474907165,-0.494387743748,-0.0701467861597,0.471343952462,1.11900300647,1.85572644501,2.6599851468,3.50773148772,4.37444660977,5.2371390708,6.07610580836,6.87628845456,7.62809985975,8.32765220829,8.97638269665,9.58013780164,10.1478347461,10.6898614496,11.2163981381,11.7358415308,12.2534865939,12.7705764225,13.2837769872,13.7850806045,14.2620988015,14.698677207,15.0757539619,15.3723869975,15.5668894775,15.6380302788,15.56627142,15.3350220227,14.9318857979,14.3498654499,13.5884649994,12.6546051315,11.5632446728,10.3375908164,9.00878790557,7.61500294904,6.19987535422,4.81036425383,3.49410106954,2.2964266973,1.25734998653,0.408696308494,-0.228285057193,-0.644619836661,-0.844442538977,-0.844877741265,-0.674974381979,-0.373787655282,0.0122224364128,0.432254238678,0.834439885964,1.16907988111,1.39160124292,1.46503899927,1.36189014704,1.06524829902,0.569190967986,-0.121546254278,-0.992520015865,-2.02102521566,-3.17788626539,-4.42944078271,-5.73957583949,-7.07169831023,-8.39054443006,-9.66375594096,-10.8631705097,-11.9657928455,-12.9544301864,-13.8179912163,-14.5514610302,-15.1555771147,-15.6362431029,-16.0037285335,-16.2717136959,-16.4562475692,-16.574691072,-16.6447143847,-16.6834054553,-16.7065298065,-16.727963787,-16.7593077955,-16.8096739816,-16.8856340877,-16.9913064696,-17.1285561584,-17.2972779732,-17.4957305716,-17.7208897148,-17.9687925434,-18.2348512043,-18.5141224297,-18.801527497,-19.0920222854,-19.3807189222,-19.6629594107,-19.9343396311,-20.1906815372,-20.4279539205,-20.6421484747,-20.8291279428,-20.9844757221,-21.103388874,-21.1806653387,-21.2108375804,-21.1884961491,-21.1088264038,-20.9683504087,-20.7658265581,-20.5032168224,-20.1865921268,-19.8268172549,-19.4398443488,-19.0464539065,-18.6713175506,-18.3413184961,-18.0831504795,-17.9203156844,-17.8697433855,-17.9383371665,-18.119814417,-18.3922168075,-18.7164400791,-19.0360570142,-19.2785951419,-19.3582909667,-19.180188817,-18.6453002258,-17.6564054839,-16.1239791689,-13.9716715846,-11.1407908768,-7.5933134647,-3.31310258182,1.69477512334,7.40649920075,13.7833256119,20.7761944201,28.3303628071,36.3892607117,44.8968327046,53.7978151878,63.0356864723,72.5483848153,82.2622685353,92.085138449,101.899402656,111.556592596,120.874408925,129.637279083,137.601061743,144.5020745,150.070105022,154.044557233,156.192448114,156.326663304,154.322739212,150.132482501,143.79295926,135.429761527,125.253950098,113.552634211,100.673731794,87.0060074988,72.955956823,58.9234417267,45.2781413028,32.3388311573,20.3572412598,9.50778641466,-0.116133986734,-8.49923803564,-15.6954915502,-21.8144548631,-27.0044376813,-31.4342572186,-35.2753884163,-38.6860975993,-41.7988049689,-44.7114834563,-47.4834314229,-50.1353086596,-52.6529422148,-54.9941201722,-57.0974126454,-58.8919912375,-60.3074506419,-61.2827500397,-61.7735642356,-61.7575415219,-61.2371861306,-60.240300642,-58.8181243528,-57.0414770696,-54.9953565136,-52.7725360301,-50.4667634686,-48.1661688195,-45.9474461323,-43.8712861038,-41.9794055357,-40.2933593869,-38.8151455785,-37.5294403526,-36.4071515839,-35.4098649893,-34.4946944239,-33.6190371449,-32.744777075,-31.8415672999,-30.8889458549,-29.8771811866,-28.8068887856,-27.6875922387,-26.5355063443,-25.370886277,-24.2153086219,-23.0892261493,-22.0100727121,-20.9910971344,-20.0409890202,-19.1642410966,-18.3620885926,-17.6337913266,-16.9779898813,-16.3938781882,-15.8819873875,-15.4444583956,-15.0847766508,-14.8070346547,-14.6148616556,-14.5102057518,-14.4921682917,-14.5560754322,-14.6929325234,-14.8893513065,-15.1279765597,-15.3883767692,-15.6483103684,-15.8852403497,-16.0779479296,-16.2080904799,-16.2615587331,-16.2295112133,-16.1089971518,-15.9031193842,-15.6207318692,-15.2757082116,-14.8858536937,-14.4715601212,-14.0543178144,-13.6552018266,-13.2934416835,-12.9851688569,-12.7424172067,-12.5724312889,-12.4773171683,-12.4540507758,-12.4948395984,-12.5878134822,-12.7179985476,-12.8685051535,-13.0218393154,-13.1612314647,-13.2718712117,-13.3419441159,-13.3633858679,-13.3322979987,-13.2490033337,-13.1177547376,-12.9461430188,-12.7442751156,-12.5238085892,-12.2969314327,-12.0753679358,-11.8694747186,-11.6874707584,-11.5348265835,-11.4138249989,-11.3233005048,-11.2585658871,-11.2115389188,-11.1710851368,-11.1235899617,-11.0537622405,-10.9456512049,-10.7838320075,-10.5546857721,-10.2476742062,-9.8564923679,-9.37998094669,-8.82269297812,-8.1950368217,-7.5129527255,-6.79712001835,-6.07173310624,-5.36292483411,-4.69695252911,-4.09829118003,-3.58779523492,-3.18109157709,-2.88734942401,-2.70853903484,-2.63924411296,-2.66703903938,-2.77338908622,-2.93498646517,-3.1254023625,-3.31691711402,-3.48238674332,-3.59701165389,-3.63988912472,-3.59525264832,-3.45332605689,-3.21074726047,-2.87054401629,-2.4416715905,-1.93814889307,-1.37785492194,-0.78106987415,-0.168863367062,0.438555881857,1.02341013617,1.57172716279,2.07441475656,2.52794825022,2.93460721534,3.30222611902,3.64345720933,3.9745817021,4.31394606714,4.6801412707,5.09007999326,5.55715425427,6.08966684075,6.68971863385,7.35269765003,8.06745639555,8.81718885832,9.58093744807,10.335585,11.0581281502,11.7279938271,12.3291543426,12.8518184613,13.2935217885,13.6595030671,13.9623258429,14.2207802183,14.4581705337,14.7001555745,14.9723527022,15.2979418166,15.6955067991,16.1773305638,16.7483165893,17.405648419,18.1392245984,18.932826799,19.7659013771,20.6157677474,21.4600188746,22.2788565828,23.0571111718,23.7857311621,24.4625909802,25.092544191,25.6867366905,26.2612762033,26.8354208551,27.4294930059,28.0627415551,28.7513673031,29.5068957202,30.3350354176,31.2351050116,32.2000520423,33.2170310659,34.2684594259,35.3334329811,36.38936288,37.413688516,38.3855288609,39.2871508446,40.1051557042,40.8313095561,41.4629714312,42.0031002914,42.4598520896,42.8458081272,43.1769050483,43.4711621615,43.7473203116,44.0235150196,44.316102114,44.6387348667,45.001758515,45.411945205,45.8725470533,46.3836056858,46.9424306088,47.5441502882,48.1822490293,48.8490259841,49.5359434486,50.2338625466,50.9331887911,51.6239636403,52.2959397491,52.938668641,53.5416136398,54.0942832421,54.586366349,55.0078455318,55.3490698131,55.6007827553,55.7541202495,55.8006092111,55.7322082136,55.5414312634,55.2215865347,54.7671449908,54.1742323094,53.4412143939,52.5693247144,51.5632633349,50.4316849754,49.1874886565,47.847825918,46.4337598334,44.9695341449,43.4814502726,41.9963965103,40.5401227916,39.1353990812,37.8002289377,36.5463063215,35.3778989836,34.2913135929,33.2750470195,32.3106595132,31.3743268403,30.4389497321,29.4766306455,28.4612791426,27.3710851145,26.1906069779,24.9122590408,23.5370437103,22.0744526887,20.5415481166,18.9613208976,17.360500451,15.7670497071,14.2076144444,12.7052024457,11.2773435335,9.93492720576,8.68183426558,7.51538037388,6.42748529642,5.4063876718,4.4386573652,3.51122745751,2.61317957129,1.73706533837,0.879623033577,0.0418382649339,-0.771612843879,-1.55342263095,-2.29504225645,-2.98820315387,-3.62636611569,-4.20591542848,-4.72695625536,-5.19362848943,-5.61391254143,-5.99896429204,-6.36207051295,-6.71735665208,-7.07840209988,-7.456922055,-7.86166024074,-8.29760578824,-8.76560564885,-9.26239720839,-9.78104031675,-10.311688222,-10.8426057018,-11.3613215668,-11.8557926208,-12.3154578541,-12.7320755426,-13.1002616692,-13.4176840656,-13.6849097941,-13.904948736,-14.0825776097,-14.2235583419,-14.3338763989,-14.4191149645,-14.4840508546,-14.5325134789,-14.5674978072,-14.5914758899,-14.6068173389,-14.6162126274,-14.6229959496,-14.6312852981,-14.6458923059,-14.6719969511,-14.7146248147,-14.778000038,-14.8648703826,-14.9759094478,-15.1092947979,-15.2605405115,-15.4226307584,-15.5864610821,-15.7415511431,-15.8769528493,-15.9822474529,-16.0485098929,-16.0691218153,-16.040336494,-15.961535925,-15.8351661828,-15.6663834445,-15.4624815667,-15.2321961588,-14.9849862405,-14.7303829201,-14.477468549,-14.2345155738,-14.008779509,-13.8064128477,-13.6324520314,-13.4908297032,-13.3843767282,-13.3147970468,-13.2826169227,-13.2871241071,-13.3263201258,-13.3969105111,-13.4943541727,-13.612985173,-13.7462092665,-13.8867658984,-14.0270367974,-14.1593772864,-14.2764470262,-14.3715223759,-14.4387806297,-14.4735538248,-14.4725533279
1,-13.8064128477,-13.6324520314,-13.4908297032,-13.3843767282,-13.3147970468,-13.2826169227,-13.2871241071,-13.3263201258,-13.3969105111,-13.4943541727,-13.612985173,-13.7462092665,-13.8867658984,-14.0270367974,-14.1593772864,-14.2764470262,-14.3715223759,-14.4387806297,-14.4735538248,-14.4725533279,-14.4340640101,-14.3580989314,-14.2464950464,-14.1029219345,-13.9327731275,-13.7429157544,-13.5412890298,-13.3363634038,-13.1364962729,-12.9492428752,-12.7806983929,-12.6349557983,-12.5137606378,-12.4164269589,-12.3400481639,-12.2799956049,-12.2306521377,-12.1862857165,-12.1419377715,-12.0941890911,-12.0416758634,-11.9852607325,-11.9278147209,-11.8736279708,-11.8275294911,-11.7938467551,-11.775365945,-11.7724583361,-11.7825178356,-11.7998126775,-11.8157969227,-11.8198629571,-11.8004541767,-11.7464068607,-11.6483589082,-11.5000539442,-11.299381891,-11.0490284497,-10.7566514212,-10.4345556537,-10.0988943186,-9.76847578957,-9.46329678943,-9.20294910172,-9.00505646412,-8.88389000367,-8.84928636848,-8.90595578871,-9.05322248264,-9.28519327106,-9.59130837848,-9.95719619274,-10.3657337234,-10.7982067901,-11.2354675225,-11.6590002593,-12.0518287983,-12.3992255713,-12.689212764,-12.9128719175,-13.0644976995,-13.1416401292,-13.145076359,-13.0787392843,-12.9496093156,-12.7675528631,-12.5450720159,-12.2969190105,-12.0395293286,-11.7902404182,-11.5662897513,-11.3836246878,-11.2556024853,-11.1917032393,-11.1964112159,-11.2684317137,-11.400395947,-11.5791649824,-11.7867793374,-12.0020206381,-12.2024657445,-12.3668340927,-12.4773686187,-12.5219611311,-12.4957423309,-12.4019070723,-12.2516322556,-12.0630565959,-11.8594123752,-11.6665114634,-11.5098749069,-11.4118443144,-11.3890169796,-11.4503054547,-11.5958437943,-11.8168597071,-12.0965191976,-12.4116420294,-12.7350939746,-13.0385935927,-13.2956324762,-13.4842012405,-13.5890391605,-13.603180288,-13.5286468505,-13.3762328953,-13.1644172974,-12.9175349144,-12.6634077896,-12.4306865974,-12.2461710014,-12.1323657752,-12.105491435,-12.1741111546,-12.3384687618,-12.5905637873,-12.9149248636,-13.2899860839,-13.6899248835,-14.0867870708,-14.4527073752,-14.7620344469,-14.9931883439,-15.1301142869,-15.163244083,-15.0899292889,-14.9143605801,-14.6470295864,-14.3038185121,-13.9048178043,-13.4729742153,-13.0326639213,-12.6082720249,-12.2228449021,-11.8968685408,-11.647215533,-11.4862953111,-11.4214353381,-11.4545142148,-11.5818606529,-11.7944250902,-12.0782233916,-12.4150440474,-12.7834005453,-13.1596983526,-13.5195710802,-13.8393235767,-14.0974025566,-14.275800588,-14.3612904245,-14.3463872062,-14.2299480508,-14.017342068,-13.7201570654,-13.3554491308,-12.9445837503,-12.5117572129,-12.0823193867,-11.6810387666,-11.3304547649,-11.0494496941,-10.8521456716,-10.7471942991,-10.7374857767,-10.8202657136,-10.9876172859,-11.2272457707,-11.5234913656,-11.8584926453,-12.2134247333,-12.5697410555,-12.9103531806,-13.2206879613,-13.4895646209,-13.7098381614,-13.8787622702,-13.9980370961,-14.0735255808,-14.1146452929,-14.1334684706,-14.1435882314,-14.1588307172,-14.1919085869,-14.2531184699,-14.3491826047,-14.4823237308,-14.6496451992,-14.8428689025,-15.0484647834,-15.2481876533,-15.4200175652,-15.5394759318,-15.5812594983,-15.5210995344,-15.3377181941,-15.0147236789,-14.5422673559,-13.9182857539,-13.1491729989,-12.2497758589,-11.2426705403,-10.1567591414,-9.02530208347,-7.88356790069,-6.76632289041,-5.70539461521,-4.72752549585,-3.8526916026,-3.09300658917,-2.45227136579,-1.92617414688,-1.50309683167,-1.16544301638,-0.891369602247,-0.65677767329,-0.437400191893,-0.210816395418,0.0417721196933,0.334149686818,0.674193192984,1.06354813354,1.49789522749,1.96777605911,2.45989530825,2.95877214539,3.44857830272,3.91497914867,4.34679024601,4.73727750114,5.08496421527,5.39386060792,5.67309516851,5.93599420356,6.19871647592,6.4785949495,6.79236134129,7.15442963751,7.57539456686,8.06086623934,8.61072006911,9.218798087,9.87305803859,10.5561325767,11.2462338977,11.9183208185,12.5454368444,13.1001294812,13.5558713484,13.8884191593,14.0770627818,14.10572885,13.9639088938,13.6473808118,13.1586877013,12.5073340094,11.7096596826,10.7883609919,9.77164273852,8.69200985866,7.58473515083,6.4860711413,5.43130454606,4.45277762415,3.57801825105,2.82812661764,2.21655886493,1.7484255492,1.42038563895,1.22116655364,1.13268181737,1.13165695286,1.19161926038,1.28506543535,1.38559791045,1.46981946057,1.51879706847,1.51894930642,1.46227311046,1.34589993955,1.17105009368,0.94152833701,0.661964389155,0.336039304024,-0.0350537592928,-0.453691588522,-0.926279952898,-1.46300450005,-2.07688118493,-2.78220510585,-3.59257334389,-4.51870991596,-5.56634423943,-6.73438851462,-8.01362810245,-9.38608843131,-10.8251786946,-12.296642453,-13.7602734701,-15.1722866116,-16.4881729957,-17.6658196931,-18.6686405245,-19.4684492759,-20.047813452,-20.4016582031,-20.5379466419,-20.4773412363,-20.2518440807,-19.9025109246,-19.4764226906,-19.0231679193,-18.5911326868,-18.2239078148,-17.9571073044,-17.8158506967,-17.8131015185,-17.9489812771,-18.2111005646,-18.5758712111,-19.0106897464,-19.4768153899,-19.9327086543,-20.3375541221,-20.6546686565,-20.8544994619,-20.9169482477,-20.8328184382,-20.604268121,-20.2442539665,-19.7750583523,-19.2260888442,-18.6312118992,-18.025920236,-17.4446302019,-16.9183627416,-16.4729867388,-16.1281089316,-15.8965955221,-15.784622638,-15.7920895527,-15.9131990308,-16.137016078,-16.4478556562,-16.8254121439,-17.2446162659,-17.6752768409,-18.0816247903,-18.4219175657,-18.6482780065,-18.7069300387,-18.5389553886,-18.0816348955,-17.2703620753,-16.0410342775,-14.332748436,-12.090565491,-9.26807154961,-5.82946450915,-1.7509379083,2.97878110095,8.35876301908,14.3769602403,21.0117891029,28.2338399288,36.0072774046,44.290490316,53.0356204738,62.1867456067,71.6766994728,81.4227631898,91.3217235327,101.245027773,111.034928688,120.502569665,129.428882078,137.568947355,144.660129448,150.433847261,154.630386607,157.01571106,157.398882356,155.648492543,151.706471783,145.597775155,137.434756005,127.415473136,115.815713858,102.975096698,89.2781922831,75.1321102685,60.9423852023,47.0892029656,33.9060069265,21.662299338,10.5520289891,0.688379893024,-7.89488046924,-15.2359883015,-21.4327712549,-26.6267238317,-30.9852900284,-34.6841037785,-37.8907819618,-40.7515588089,-43.3816449389,-45.8597450238,-48.226728905,-50.4880670189,-52.6193442913,-54.5739742969,-56.2921501211,-57.7100808685,-58.7686557061,-59.4208289794,-59.6372079035,-59.4095282517,-58.7519063793,-57.6999445287,-56.3079307444,-54.6445078159,-52.7872824886,-50.8169031507,-48.8111489215,-46.8395449879,-44.9589503472,-43.2104603168,-41.6178358288,-40.1875257608,-38.9102003401,-37.7635768566,-36.7162067086,-35.7318160091,-34.7737577492,-33.8091444811,-32.812284217,-31.7671313274,-30.6685772556,-29.5225293795,-28.3448469488,-27.1593090337,-25.9948717558,-24.8825244913,-23.8520739495,-22.9291710314,-22.1328517669,-21.4737974063,-20.953439128,-20.5639493917,-20.2890827666,-20.1057595189,-19.9862282052,-19.9006003929,-19.8195226917,-19.7167405044,-19.5713167184,-19.3692987203,-19.1046784728,-18.7795599847,-18.4035301336,-17.992313121,-17.5658645831,-17.1461179992,-16.7546263256,-16.4103430271,-16.1277600485,-15.9155699662,-15.7759524495,-15.7045105348,-15.6908106637,-15.7194219229,-15.7713117187,-15.8254405211,-15.8604059376,-15.856010439,-15.7946589703,-15.662523922,-15.4504396805,-15.1545051654,-14.7763816692,-14.3232780566,-13.8076195047,-13.2464024956,-12.6602498984,-12.0721967814,-11.5062595758,-10.9858660835,-10.5322478343,-10.1629150106,-9.89034318571,-9.72099689002,-9.65479545636,-9.68509181258,-9.79918766145,-9.97935396053,-10.2042704058,-10.4507488013,-10.6955695658,-10.9172439921,-11.0975210985,-11.2224878559,-11.2831623546,-11.2755443063,-11.200156352,-11.0611721521,-10.8652736366,-10.6204036983,-10.3345798523,-10.0149110572,-9.66691958291,-9.29422019007,-8.89855819178,-8.48016339688,-8.03834322275,-7.5722172704,-7.08148712062,-6.56713785294,-6.0319803884,-5.48096466176,-4.92122103768,-4.36181910349,-3.81326625604,-3.28679997235,-2.79355343469,-2.34369034708,-1.94560830813,-1.60530006044,-1.32594010952,-1.10773450104,-0.948038580002,-0.84171547616,-0.781680153361,-0.759552714139,-0.766332457783,-0.793002777425,-0.830987360289,-0.872399894761,-0.910060457733,-0.937288389649,-0.947519251497,-0.933827354117,-0.888460100067,-0.802501036533,-0.665771465841,-0.467054645385,-0.19468425588,0.162514782058,0.614002408245,1.16613829858,1.82079721753,2.57416760788,3.41591515393,4.3288692703,5.28934548497,6.26815420732,7.23227230207,8.14707602186,8.97896107972,9.69811699265,10.2811864901,10.7135330774,10.9908640544,11.1200115628,11.1187552289,11.0146674456,10.8430647139,10.6442435318,10.4602560865,10.3315309871,10.2936622448,10.374673743,10.593017565,10.9564868682,11.4621254328,12.097108706,12.8404695734,13.6654594409,14.5422807706,15.4409056802,16.3337067968,17.1976669746,18.0159958587,18.7790540236,19.4845602096,20.1371260223,20.7472192951,21.3296983231,21.9020828343,22.482734269,23.0891093501,23.7362295134,24.4354773729,25.1937931449,26.0133020844,26.8913620597,27.8209823568,28.7915349631,29.7896617994,30.8002779321,31.8075812941,32.796000522,33.751038628,34.659994846,35.5125639764,36.3013180143,37.0220691202,37.6741011485,38.2602464872,38.7867818525,39.2631229029,39.7013113472,40.1153063372,40.5201114071,40.930787072,41.3614158995,41.8240997389,42.3280759506,42.8790390294,43.4787442864,44.1249501496,44.8117250601,45.5301053039,46.2690449659,47.0165548533,47.7608924297,48.491648235,49.2005815408,49.8820897305,50.5332478127,51.1534184312,51.743498205,52.3049222843,52.8385863281,53.3438574057,53.8178303195,54.2549459502,54.647030852,54.983753497,55.253434027,55.4441003156,55.5446583207,55.5460393102,55.4421974526,55.2308537543,54.9139116001,54.4975013871,53.9916446438,53.4095605853,52.7666695845,52.0793770673,51.3637452799,50.6341759506,49.9022308932,49.1757079301,48.458066032,47.7482588163,47.0409942929,46.3273962533,45.5960029077,44.834003926,44.0285906266,43.1682793166,42.2440683524,41.2503073818,40.1851915162,39.0508396184,37.852967382,36.6002140974,35.3032193863,33.973567656,32.6227217613,31.2610549947,29.8970666435,28.5368371688,27.183750608,25.8384881678,24.499279677,23.1623877359,21.8227906935,20.4750220463,19.1141129118,17.736569723,16.3413024849,14.9304040432,13.5096739915,12.0887881138,10.6810391132,9.302616466,7.97144817361,6.70568747791,5.5219840358,4.4337221574,3.4494303706,2.57156174729,1.79581239536,1.11109005115,0.500173207476,-0.0589766658684,-0.591361337774,-1.12272338221,-1.67717025762,-2.27487944178,-2.93011434033,-3.64975253495,-4.4324795742,-5.26873801083,-6.14144900587,-7.02744915442,-7.89951481746,-8.72878672845,-9.48736541112,-10.1508285391,-10.7004281924,-11.1247591326,-11.4207451017,-11.5938618648,-11.6575943611,-11.6322014761,-11.5429267936,-11.4178401333,-11.2855185849,-11.1727767698,-11.1026373497,-11.092699441,-11.1540197559,-11.29057299,-11.4993070064,-11.7707575039,-12.0901400559,-12.4387996596,-12.7958737899,-13.1400169174,-13.4510422937,-13.7113581661,-13.9071067585,-14.0289508788,-14.0724899638,-14.0383199555,-13.9317760201,-13.7624120462,-13.543276508,-13.2900428656,-13.020047382,-12.7512811152,-12.5013779783,-12.2866379429,-12.121123493,-12.0158674751,-11.9782305401,-12.011445537,-12.114383771,-12.2815730933,-12.5034889951,-12.7671257579,-13.0568344695,-13.3553891185,-13.6452137886,-13.9096778265,-14.1343472395,-14.3080741394,-14.4238142544,-14.4790852626,-14.4760136275,-14.4209605086,-14.3237625551,-14.1966649441,-14.0530565675,-13.9061369671,-13.7676494161,-13.6468044606,-13.5494951919,-13.4778727761,-13.4303123353,-13.4017593558,-13.3844094772,-13.3686433379,-13.3441159458,-13.3008887664,-13.2304931818,-13.1268255544,-12.9867948588
1,-13.543276508,-13.2900428656,-13.020047382,-12.7512811152,-12.5013779783,-12.2866379429,-12.121123493,-12.0158674751,-11.9782305401,-12.011445537,-12.114383771,-12.2815730933,-12.5034889951,-12.7671257579,-13.0568344695,-13.3553891185,-13.6452137886,-13.9096778265,-14.1343472395,-14.3080741394,-14.4238142544,-14.4790852626,-14.4760136275,-14.4209605086,-14.3237625551,-14.1966649441,-14.0530565675,-13.9061369671,-13.7676494161,-13.6468044606,-13.5494951919,-13.4778727761,-13.4303123353,-13.4017593558,-13.3844094772,-13.3686433379,-13.3441159458,-13.3008887664,-13.2304931818,-13.1268255544,-12.9867948588,-12.8106708557,-12.602110951,-12.3678742149,-12.1172589783,-11.8613239638,-11.6119704579,-11.3809731775,-11.1790491355,-11.0150467093,-10.8953221489,-10.8233498858,-10.7995887635,-10.8216012329,-10.8843987827,-10.9809663154,-11.1029029639,-11.2411092531,-11.3864520154,-11.5303486278,-11.6652284284,-11.7848481728,-11.8844571257,-11.9608240662,-12.0121522922,-12.0379192289,-12.0386838272,-12.0159063541,-11.9718196055,-11.9093765269,-11.8322769957,-11.7450494989,-11.6531381311,-11.5629296099,-11.4816552093,-11.4171207518,-11.3772508956,-11.3694744261,-11.4000159154,-11.4731878884,-11.5907912998,-11.7517283326,-11.951909936,-12.1845027377,-12.4405103954,-12.7096306393,-12.9812807074,-13.2456498705,-13.4946253315,-13.7224503687,-13.9260102072,-14.1046964388,-14.2598660291,-14.3939753063,-14.5095220752,-14.6079614662,-14.688768453,-14.7488018975,-14.7820854348,-14.7800660595,-14.7323494762,-14.6278494082,-14.4562326634,-14.2094985939,-13.8835055635,-13.4792517768,-13.0037351241,-12.4702559235,-11.8980842715,-11.3114840156,-10.7381597299,-10.2072620169,-9.74714102727,-9.38307131486,-9.13517880925,-9.01678166885,-9.03331314918,-9.18193157489,-9.45184793124,-9.82532502609,-10.2792333005,-10.786995458,-11.3207208156,-11.8533230586,-12.3604309343,-12.8219364991,-13.2230740831,-13.5549783524,-13.8147246308,-14.004902416,-14.1328087058,-14.2093686238,-14.2478967877,-14.2628061947,-14.2683561282,-14.2775113804,-14.3009660998,-14.346369782,-14.4177818174,-14.5153745334,-14.6354011186,-14.7704412014,-14.9099298639,-15.0409630856,-15.1493532257,-15.220883057,-15.2426786124,-15.2045937379,-15.100477759,-14.9291873313,-14.6952091666,-14.4087854341,-14.0854788202,-13.7451756843,-13.4105950461,-13.105436915,-12.8523544328,-12.6709622289,-12.5760948648,-12.5765052497,-12.6741469992,-12.8641218083,-13.1352992908,-13.471540427,-13.8533859363,-14.2600165143,-14.6712602493,-15.0694182661,-15.440703696,-15.7761384736,-16.0718207509,-16.3285542069,-16.5509095918,-16.7458588997,-16.9211748437,-17.0838158294,-17.2385153729,-17.3867648124,-17.5263235099,-17.6513195587,-17.7529265606,-17.820528604,-17.8432249034,-17.8114840804,-17.7187397588,-17.5627255241,-17.3463774322,-17.0781827117,-16.7719181251,-16.445792703,-16.1210785781,-15.8203724041,-15.5656716006,-15.3764693513,-15.2680672089,-15.2502750394,-15.32661925,-15.494119079,-15.7436258954,-16.0606606304,-16.4266368737,-16.820326674,-17.2194145739,-17.6019919242,-17.9478648296,-18.2395806796,-18.463115256,-18.6082003505,-18.6683069192,-18.6403283672,-18.5240312095,-18.3213559362,-18.0356598898,-17.6709965628,-17.2315212015,-16.7210995339,-16.1431736487,-15.5009066503,-14.7975878915,-14.0372378142,-13.2253121708,-12.3693770058,-11.4796149232,-10.5690341341,-9.65328510174,-8.75004163008,-7.87796670213,-7.05534884023,-6.29855234227,-5.62046551467,-5.02914798752,-4.52686708605,-4.10967340437,-3.76760112664,-3.48549813402,-3.24440721279,-3.02334664114,-2.8012878892,-2.5591071737,-2.28129739362,-1.95726360869,-1.58208118759,-1.15666157584,-0.687336553579,-0.184929591383,0.336572962446,0.861609932772,1.37473916335,1.86228473145,2.31379634882,2.72319813266,3.08952793241,3.41719821337,3.7157454465,3.99907600253,4.28426010576,4.58996786141,4.93467841354,5.33481995067,5.80300948175,6.34655331615,6.96634154856,7.65622669556,8.40292601077,9.18643829034,9.98092674827,10.7559935954,11.4782589097,12.1131524683,12.6268271158,12.9881016056,13.1703380924,13.1531559368,12.923882069,12.4786416146,11.8230027068,10.972107416,9.95024667423,8.78987003735,7.53005910822,6.21453370931,4.88929926258,3.6000787235,2.38969866194,1.29561235292,0.347739747948,-0.433215919247,-1.0368505931,-1.46346393351,-1.72376374923,-1.8379051578,-1.83395230764,-1.74589349082,-1.61136930268,-1.46928661501,-1.35748902492,-1.31063880641,-1.35843870031,-1.52428727437,-1.8244225438,-2.26756843806,-2.8550606454,-3.58139522985,-4.43511767731,-5.39995350507,-6.45607515315,-7.58140323305,-8.75285158448,-9.94744227941,-11.1432361397,-12.3200448417,-13.4599114177,-14.5473663422,-15.5694856365,-16.5157942876,-17.3780708162,-18.1501146155,-18.8275347057,-19.4076062278,-19.8892209158,-20.2729334805,-20.5610820417,-20.7579420461,-20.8698629406,-20.9053367174,-20.8749565624,-20.7912391445,-20.6683011643,-20.5213955797,-20.3663234949,-20.2187446602,-20.0934151108,-20.0033868133,-19.9592121299,-19.9682046898,-20.0338159371,-20.1551907596,-20.3269639573,-20.5393506514,-20.7785680169,-21.0276036677,-21.2673185035,-21.4778397223,-21.6401642572,-21.7378564651,-21.7586910043,-21.6960695678,-21.5500370402,-21.3277459436,-21.0432701086,-20.7167442659,-20.3728929956,-20.0390929304,-19.74316963,-19.5111542274,-19.3652124925,-19.3219164664,-19.3909678642,-19.574416075,-19.8663531232,-20.2530213348,-20.7132411284,-21.2190575343,-21.7365130774,-22.2264774558,-22.6454952902,-22.9466457948,-23.0804363819,-22.9957705263,-22.6410345769,-21.965336612,-20.9199035822,-19.4596042221,-17.5445199468,-15.1414411367,-12.2251305245,-8.77917905148,-4.79629289933,-0.27790081975,4.76694059262,10.3232470482,16.3721823447,22.8931555159,29.8654949721,37.2692237411,45.0845051017,53.2894576829,61.8562481727,70.7456383693,79.9004581155,89.2387533606,98.6475717105,107.978452393,117.045651636,125.627945705,133.474523687,140.315045271,145.87344793,149.884606541,152.112541091,152.36859014,150.527856323,146.542299188,140.449090818,132.373233615,122.523928126,111.184727162,98.698074013,85.4453495856,71.8239972415,58.2236069892,45.0029799907,32.4701311513,20.8669151769,10.3595013378,1.03532413684,-7.09352672364,-14.0811600087,-20.0342112514,-25.0952612595,-29.4251416744,-33.1858928845,-36.5259151595,-39.5684802897,-42.4043071423,-45.0884143889,-47.6410068086,-50.0517758211,-52.2867317733,-54.2965488619,-56.0253905147,-57.4192768125,-58.4332298858,-59.0366574418,-59.2166780351,-58.9793273197,-58.3487910915,-57.3649741291,-56.0798262216,-54.5529069141,-52.846681675,-51.0220109345,-49.1342282101,-47.2301134529,-45.3459616759,-43.5068329254,-41.7269548979,-40.0111409781,-38.3569919824,-36.7575783266,-35.2042595753,-33.6892972223,-32.2079568252,-30.7598740289,-29.3495656748,-27.9860865118,-26.6819458545,-25.4514900075,-24.3090131102,-23.2668752845,-22.3338833846,-21.5141330872,-20.8064328656,-20.2043442627,-19.6967922561,-19.2691351177,-18.9045413396,-18.5855034884,-18.2953228645,-18.0194197858,-17.7463565506,-17.4684984058,-17.1822779501,-16.8880673085,-16.5896978201,-16.2936967233,-16.00833208,-15.7425688828,-15.5050398211,-15.3031238078,-15.1422056508,-15.025163964,-14.9521055882,-14.9203381948,-14.9245525416,-14.9571741173,-15.0088403508,-15.0689622455,-15.1263354908,-15.1697729269,-15.188735103,-15.1739369017,-15.1179055578,-15.0154603943,-14.8640802317,-14.6641240221,-14.4188760232,-14.1343987741,-13.8191933355,-13.4836838333,-13.1395595743,-12.7990209576,-12.4739839809,-12.1753020176,-11.9120628016,-11.6910133311,-11.516155469,-11.388540192,-11.3062693531,-11.2646927039,-11.2567684242,-11.2735414771,-11.3046884209,-11.3390803353,-11.3653259892,-11.3722731764,-11.3494644072,-11.2875595865,-11.1787477166,-11.0171679227,-10.7993463594,-10.5246327488,-10.1955941107,-9.81830039599,-9.40242356278,-8.96107291779,-8.51030756788,-8.06830058775,-7.65417465948,-7.28657866919,-6.98212115502,-6.75381183988,-6.60968027321,-6.55173674068,-6.57541422606,-6.66958409298,-6.81717827826,-6.99638511274,-7.18232280076,-7.34904166679,-7.47166936463,-7.52849575527,-7.50279683004,-7.38421851895,-7.1695789643,-6.86299886025,-6.47533057913,-6.02292481054,-5.52584471212,-5.0057065055,-4.48338245252,-3.97683405514,-3.49933809468,-3.05832121472,-2.65493627347,-2.28441053523,-1.93709078936,-1.60002158259,-1.25883330095,-0.899693722513,-0.511089687733,-0.0852481621727,0.380932610869,0.885503110356,1.42163104734,1.97826372168,2.54119314625,3.09441183832,3.62163829562,4.10788983686,4.54098275805,4.91284379242,5.22052328012,5.46681172426,5.66038069666,5.81539890586,5.95061548145,6.08795346329,6.2507123444,6.46153159808,6.7403081504,7.10228132656,7.55649385299,8.1048066833,8.74159253455,9.45416420231,10.2239160213,11.0280780251,11.8419110125,12.6411156093,13.4041973179,14.114528036,14.7618748564,15.3432269892,15.8628345763,16.331468363,16.7650038456,17.1825142831,17.6041116621,18.0487948031,18.5325472642,19.0668800031,19.6579456231,20.3062745539,21.0071095336,21.7512519798,22.5262885728,23.3180418365,24.1120844932,24.8951705481,25.6564612104,26.3884552425,27.0875663398,27.7543214633,28.3931823285,29.0120176785,29.6212773566,30.232940812,30.8593315853,31.511903383,32.2001097146,32.9304649273,33.7058879812,34.5253915394,35.3841407049,36.2738636956,37.1835583689,38.1004107326,39.0108284382,39.9014937872,40.760353691,41.5774832849,42.3457803431,43.061464915,43.7243700203,44.3380143891,44.9094492303,45.4488716613,45.969001738,46.4842306356,47.0095650929,47.5594163117,48.1463069164,48.7795928128,49.4643128796,50.2002841035,50.9815504704,51.796270256,52.6270902293,53.4520108078,54.2456990683,54.9811625969,55.6316609562,56.1727054466,56.5839827981,56.8510352125,56.966539086,56.9310492675,56.7531153744,56.4487298326,56.0401294114,55.5540361133,55.0194812724,54.4654011728,53.9182181753,53.3996257499,52.9247789527,52.5010555932,52.1275009685,51.7950053947,51.4871947746,51.181946456,50.8533819274,50.4741405255,50.0177102404,49.4605878671,48.7840636322,47.9754735561,47.0288302182,45.9448194573,44.7302249344,43.3969030769,41.9604698221,40.4388748402,38.8510299571,37.2156303996,35.5502654981,33.8708654353,32.1914788375,30.5243291104,28.8800616906,27.2680745863,25.6968228359,24.1740030291,22.7065537024,21.3004469022,19.9602903266,18.6888020398,17.4862535922,16.3499956357,15.2741785019,14.2497587058,13.2648448951,12.3053895593,11.356182609,10.402056584,9.42917745534,8.42627554777,7.38567163248,6.30397437162,5.18236470327,4.02643524961,2.84561052796,1.65222713776,0.460393332653,-0.715231352551,-1.86059514157,-2.96322843222,-4.01294234633,-5.00220060879,-5.92615705342,-6.78239182052,-7.57041377057,-8.29102171442,-8.94563034324,-9.53566651459,-10.0621272197,-10.5253633927,-10.9251174534,-11.2608029682,-11.5319785329,-11.7389401276,-11.8833395515,-11.9687316447,-12.0009590608,-11.9882992199,-11.9413225898,-11.8724431442,-11.7951784898,-11.7231754368,-11.6690923714,-11.6434576528,-11.6536383468,-11.7030519847,-11.790734144,-11.9113380165,-12.0555931341,-12.2111954527,-12.3640474921,-12.4997226108,-12.6049979433,-12.6692900248,-12.6858368079,-12.6524979854,-12.572088202,-12.4522093162,-12.3046020981,-12.14408833,-11.9872152226,-11.8507406358,-11.750107387,-11.698048512,-11.7034457733,-11.7705351903,-11.898520011,-12.0816166256,-12.30952464,-12.5682799796,-12.8414202379,-13.1113655427,-13.3608977993,-13.5746088906,-13.7401869793,-13.849421332,-13.8988304975,-13.8898547566,-13.8285980469,-13.7251517388,-13.5925764318,-13.445652312,-13.2995292297,-13.1684125443,-13.0644104088,-12.9966446301,-12.970693716,-12.988397063,-13.0480080486,-13.1446462035,-13.2709696954,-13.4179728413,-13.5758109434,-13.7345656575,-13.8848855228,-14.0184638402,-14.128344666,-14.2090724046,-14.2567177716,-14.2688210199,-14.2442924384,-14.1833021528
1,-11.9113380165,-12.0555931341,-12.2111954527,-12.3640474921,-12.4997226108,-12.6049979433,-12.6692900248,-12.6858368079,-12.6524979854,-12.572088202,-12.4522093162,-12.3046020981,-12.14408833,-11.9872152226,-11.8507406358,-11.750107387,-11.698048512,-11.7034457733,-11.7705351903,-11.898520011,-12.0816166256,-12.30952464,-12.5682799796,-12.8414202379,-13.1113655427,-13.3608977993,-13.5746088906,-13.7401869793,-13.849421332,-13.8988304975,-13.8898547566,-13.8285980469,-13.7251517388,-13.5925764318,-13.445652312,-13.2995292297,-13.1684125443,-13.0644104088,-12.9966446301,-12.970693716,-12.988397063,-13.0480080486,-13.1446462035,-13.2709696954,-13.4179728413,-13.5758109434,-13.7345656575,-13.8848855228,-14.0184638402,-14.128344666,-14.2090724046,-14.2567177716,-14.2688210199,-14.2442924384,-14.1833021528,-14.0871795723,-13.9583311962,-13.8001765699,-13.6170965709,-13.4143848706,-13.1981905973,-12.975436561,-12.7536929149,-12.5409829311,-12.3454992851,-12.1752190049,-12.0374229994,-11.9381476396,-11.881615038,-11.8697008948,-11.9015026971,-11.9730674251,-12.0773278845,-12.2042811999,-12.3414226642,-12.4744243179,-12.5880225028,-12.6670552419,-12.6975717558,-12.6679250054,-12.5697549465,-12.3987754565,-12.1552914283,-11.8443935957,-11.4758055315,-11.0633870908,-10.6243277375,-10.1780882011,-9.74516732422,-9.34578192852,-8.9985515794,-8.71927834358,-8.5199048613,-8.40772281634,-8.3848887501,-8.44828595712,-8.58975082177,-8.7966601164,-9.05285300814,-9.33983835213,-9.63821488037,-9.92920980385,-10.1962212445,-10.4262339732,-10.6109697377,-10.7476376385,-10.8391710165,-10.893877745,-10.9244896675,-10.9466687031,-10.9771022106,-11.0313864615,-11.1219423922,-11.2562226154,-11.4354480408,-11.6540572578,-11.8999687085,-12.1556559189,-12.3999337473,-12.6102631232,-12.7653153158,-12.8475027636,-12.8451854438,-12.7542981195,-12.579208725,-12.3327031683,-12.0350873589,-11.7124932979,-11.3945626618,-11.1117492296,-10.8925230008,-10.7607686226,-10.7336469043,-10.8201329763,-11.0203644876,-11.3258382566,-11.7203966441,-12.1818588306,-12.6840885981,-13.1992566889,-13.7000549103,-14.161648461,-14.5632058792,-14.8889130192,-15.1284476347,-15.2769542228,-15.3346070193,-15.3058783205,-15.198639106,-15.0232117161,-14.7914747092,-14.5160934655,-14.2099212984,-13.8855875551,-13.5552626341,-13.2305660384,-12.9225643663,-12.6417940265,-12.398240811,-12.2012168045,-12.0590946069,-11.9788876596,-11.9656995623,-12.0220989781,-12.1475040688,-12.3376763628,-12.5844253897,-12.875611403,-13.1955052937,-13.5255256195,-13.8453274356,-14.1341723523,-14.3724701788,-14.5433549799,-14.6341458713,-14.637546612,-14.552457073,-14.384301418,-14.1448189945,-13.8513110533,-13.5253861562,-13.1912959864,-12.8739972129,-12.5971094306,-12.3809590734,-12.2409001758,-12.1860822445,-12.218793597,-12.3344492457,-12.5222228969,-12.7662521896,-13.0472846517,-13.344587275,-13.6379201438,-13.9093752209,-14.144902857,-14.335386745,-14.4771782123,-14.5720577442,-14.6266493915,-14.6513658605,-14.6590033164,-14.6631319963,-14.6764404034,-14.7091874486,-14.7679000976,-14.8544267255,-14.9654220961,-15.0923021945,-15.2216690529,-15.3361694903,-15.415719119,-15.4389954456,-15.3850827219,-15.2351378447,-14.9739426434,-14.5912148545,-14.0825688186,-13.4500468316,-12.702180324,-11.8535818086,-10.9241082774,-9.93766957529,-8.9207780343,-7.90094706127,-6.90504738695,-5.95772331371,-5.07996157845,-4.28789526172,-3.59191463332,-2.99614369278,-2.49832297088,-2.09011498172,-1.75781951525,-1.48345407762,-1.24612347765,-1.02357566434,-0.793822317979,-0.536695412533,-0.235216329157,0.123328527055,0.546684463121,1.03734252772,1.59267873757,2.20549001199,2.86486590508,3.5573090677,4.26799877462,4.98208167188,5.68587290246,6.3678595305,7.01941688786,7.63517670712,8.21302222769,8.75372666443,9.2602923438,9.73708213642,10.1888567335,10.6198370131,11.0328992611,11.4289844559,11.8067659555,12.1625792455,12.4905801664,12.7830711799,13.030924041,13.2240336849,13.3517596459,13.4033409753,13.3682991053,13.2368617301,13.000444344,12.6522140352,12.1877359304,11.6056723154,10.908474973,10.1029891672,9.20087727046,8.21877275388,7.17809054825,6.1044462488,5.02667236753,3.97546173186,2.98171147549,2.0746801609,1.28010004197,0.618402353787,0.103213531545,-0.259736294673,-0.473183383753,-0.548314924836,-0.504157054982,-0.366410625906,-0.165830028467,0.0637184960808,0.287355829491,0.4712733572,0.584636474801,0.60116975222,0.500324744658,0.267978713109,-0.103339153268,-0.614654141794,-1.26111143466,-2.03280529514,-2.91576793258,-3.89301697289,-4.9455733248,-6.05338129556,-7.19608696092,-8.3536556088,-9.50683130375,-10.637458861,-11.7286997357,-12.7651788341,-13.7331000249,-14.6203649374,-15.4167227166,-16.1139681078,-16.7061925877,-17.1900796623,-17.5652219982,-17.8344252575,-18.0039519122,-18.0836493061,-18.0869022325,-18.0303541914,-17.9333555463,-17.8171216812,-17.7036184772,-17.6142321916,-17.5683202127,-17.5817710433,-17.6657193868,-17.8255605708,-18.0603863705,-18.36292395,-18.7200065853,-19.1135464653,-19.5219243339,-19.9216658252,-20.2892461417,-20.6028565193,-20.8439777403,-20.9986348376,-21.0582478085,-21.0200391641,-20.8870042348,-20.6674894179,-20.3744535989,-20.0245066252,-19.6368249409,-19.2320388697,-18.8311708962,-18.4546829103,-18.1216658162,-17.849179368,-17.6517254158,-17.5408160813,-17.5245826039,-17.6073640079,-17.789220114,-18.0653319329,-18.4252829315,-18.8522533515,-19.322201139,-19.8031407425,-20.2546589654,-20.627819858,-20.8656035689,-20.9039932498,-20.6737676074,-20.1029764871,-19.1199803621,-17.6568348314,-15.6527152958,-13.0570233514,-9.83181149053,-5.95321714134,-1.41171247541,3.78885710833,9.63327677495,16.0976438651,23.1522028105,30.7637169647,38.8967623257,47.5134348997,56.5711716403,66.01867353,75.7902523955,85.7992537375,95.9314850728,106.039754781,115.940662348,125.414656431,134.210093807,142.051615385,148.652652561,153.731351693,157.028726637,158.327485318,157.469777747,154.372108266,149.035846028,141.552131341,132.100469626,120.940876773,108.400034769,94.8524808755,80.6983359739,66.3394281859,52.1558429435,38.4849002589,25.6043171087,13.7208789174,2.96536801847,-6.60615142729,-15.0052329262,-22.2992263148,-28.5962333416,-34.0285490075,-38.7363042588,-42.8528441444,-46.4930455129,-49.7453540507,-52.6678606214,-55.2882956926,-57.6074423317,-59.6051842183,-61.248232836,-62.498521168,-63.3213014729,-63.6921243391,-63.6020809707,-63.0609324586,-62.0979998598,-60.7609212063,-59.1125756286,-57.2266173979,-55.1821482136,-53.0580854486,-50.9277631448,-48.8542399734,-46.8866937086,-45.0581644012,-43.3847773889,-41.8664418648,-40.4888909138,-39.2268150285,-38.0477527669,-36.9163472102,-35.7985600656,-34.6654575595,-33.496240314,-32.280276023,-31.017999159,-29.720655132,-28.4089761161,-27.1109717458,-25.8590914288,-24.6870601352,-23.6267032689,-22.7050587359,-21.9420286151,-21.3487545686,-20.9268182042,-20.6682796679,-20.5564852343,-20.5675072974,-20.6720351384,-20.837515436,-21.0303464663,-21.2179543945,-21.3706170075,-21.4629426376,-21.4749540338,-21.392764353,-21.2088626782,-20.9220483605,-20.5370669991,-20.0640067729,-19.517513571,-18.9158788461,-18.2800473303,-17.6325842392,-16.9966342679,-16.3948980546,-15.8486463499,-15.3767886069,-14.9950122065,-14.7150120904,-14.5438384322,-14.4834008436,-14.5301785598,-14.6751929334,-14.9042969043,-15.1988221765,-15.5365969712,-15.8933068602,-16.244123215,-16.5654758406,-16.8368073464,-17.042125215,-17.1711698185,-17.2200458889,-17.1912198537,-17.092859802,-16.937578176,-16.7407167925,-16.518376911,-16.2854338082,-16.0537798826,-15.8310117969,-15.6197194947,-15.4174560679,-15.2173782127,-15.0094596637,-14.782106862,-14.5239576972,-14.2256271199,-13.8811790228,-13.4891478686,-13.0529977265,-12.5809802436,-12.0854262891,-11.5815700051,-11.0860526603,-10.6152834255,-10.1838434435,-9.80310854321,-9.48023643095,-9.21761960201,-9.01285044935,-8.85918585644,-8.74644107548,-8.66219329128,-8.59314037174,-8.52644528406,-8.45090426673,-8.35780625327,-8.24139796583,-8.09892658536,-7.93029126798,-7.73738695307,-7.52326137487,-7.29122458658,-7.04404873969,-6.78337591216,-6.50941642073,-6.22097355043,-5.91577914328,-5.59107602044,-5.24434607193,-4.87406308123,-4.48034884866,-4.06542778066,-3.63380441265,-3.19212548938,-2.74872873143,-2.31292013672,-1.89405678338,-1.50053908991,-1.13883216164,-0.812637774972,-0.522325817196,-0.264707638146,-0.0331964246676,0.181644907101,0.391215061242,0.607736029577,0.842991349696,1.10708749685,1.40738627215,1.74773735886,2.12810374444,2.54462336622,2.99009483584,3.45482114741,3.92770078841,4.3974275386,4.85365281985,5.28797838564,5.6946791406,6.07109978953,6.41771734041,6.73790671954,7.03748225225,7.32410856499,7.60667814273,7.89473991967,8.19803737614,8.52618138611,8.88844934205,9.29367436688,9.75017139388,10.2656425387,10.8470118197,11.5001564335,12.2295252444,13.0376614704,13.9246722138,14.887708916,15.9205367092,17.0132744199,18.1523793512,19.3209321308,20.4992485216,21.6658099805,22.7984666541,23.8758296943,24.8787388542,25.7916708136,26.6039475649,27.3106149845,27.91288964,28.4181144268,28.8392158925,29.1937115532,29.5023667029,29.7876396339,30.0720753077,30.3768064472,30.7202977825,31.1174282584,31.5789554441,32.1113556914,32.716991135,33.39452566,34.1394981693,34.9449618071,35.8021096674,36.7008278388,37.6301421505,38.5785522766,39.5342723386,40.4854172312,41.4201853297,42.3270887302,43.1952709971,44.0149308699,44.7778418655,45.4779269671,46.1118199819,46.6793257089,47.183683914,47.6315500501,48.0326298228,48.3989440091,48.7437506232,49.0802069825,49.4199055208,49.7714543903,50.1392883065,50.5228816848,50.9164948553,51.3095199183,51.6874143179,52.0331287372,52.3288638807,52.5579396709,52.7065389603,52.7651000647,52.7291770421,52.5996573587,52.3823128703,52.086748927,51.7248948418,51.3092362194,50.8510188638,50.3586527971,49.8365152545,49.284298666,48.6969809554,48.0654194038,47.3774947008,46.6196673705,45.7787621288,44.8437722266,43.8074774493,42.6676946345,41.4280239193,40.0980110028,38.69270816,37.2316773999,35.7375322529,34.2341562301,32.7447636533,31.2899810813,29.886124797,28.5438325481,27.2671776381,26.053352795,24.8929626107,23.770909773,22.6678056626,21.5617853231,20.4305665068,19.2535682817,18.0139001047,16.7000474226,15.3071116083,13.8375053371,12.3010540165,10.71450486,9.10049351073,7.48606011888,5.90083962333,4.37507304871,2.93759712337,1.61396804878,0.424861706176,-0.615132443844,-1.49824157243,-2.22372431544,-2.79757765508,-3.23178984741,-3.54323433394,-3.75232971857,-3.88160617829,-3.95431693986,-3.99321472903,-4.01957963049,-4.05254103724,-4.10868892327,-4.2019266309,-4.34348669073,-4.54201864079,-4.80366534573,-5.13206970857,-5.52829120234,-5.99065334765,-6.51458020315,-7.09250382652,-7.71392971964,-8.36573173366,-9.03271442118,-9.69843560327,-10.3462332862,-10.9603579183,-11.5270814959,-12.0356453837,-12.4789217061,-12.8536972599,-13.1605385082,-13.4032533119,-13.5880210178,-13.7223095036,-13.813729357,-13.8689869886,-13.8930879432,-13.8889094962,-13.8572112443,-13.7970897248,-13.7068158581,-13.584931118,-13.4314293424,-13.2488251675,-13.042913972,-12.8230642272,-12.6019474725,-12.3946942339,-12.2175527154,-12.0862068609,-12.0139688877,-12.0100894259,-12.0784211193,-12.2166294222,-12.416073417,-12.6623907982,-12.9367287869,-13.217480934,-13.4823299403,-13.7103653488,-13.8840437726,-13.9907857222,-14.0240517488,-13.9838042959,-13.8763319861,-13.7134815712,-13.5114017217,-13.288946031,-13.0659061691,-12.8612490483,-12.6915162186,-12.5695136237,-12.5033805434,-12.49608348,-12.545339241,-12.6439359998,-12.7803945409,-12.9398952544,-13.1053890772,-13.2588106342,-13.3823166436,-13.4594796403,-13.4763746066,-13.4225039595,-13.2915153028,-13.0816773647,-12.7960928625
1,-3.99321472903,-4.01957963049,-4.05254103724,-4.10868892327,-4.2019266309,-4.34348669073,-4.54201864079,-4.80366534573,-5.13206970857,-5.52829120234,-5.99065334765,-6.51458020315,-7.09250382652,-7.71392971964,-8.36573173366,-9.03271442118,-9.69843560327,-10.3462332862,-10.9603579183,-11.5270814959,-12.0356453837,-12.4789217061,-12.8536972599,-13.1605385082,-13.4032533119,-13.5880210178,-13.7223095036,-13.813729357,-13.8689869886,-13.8930879432,-13.8889094962,-13.8572112443,-13.7970897248,-13.7068158581,-13.584931118,-13.4314293424,-13.2488251675,-13.042913972,-12.8230642272,-12.6019474725,-12.3946942339,-12.2175527154,-12.0862068609,-12.0139688877,-12.0100894259,-12.0784211193,-12.2166294222,-12.416073417,-12.6623907982,-12.9367287869,-13.217480934,-13.4823299403,-13.7103653488,-13.8840437726,-13.9907857222,-14.0240517488,-13.9838042959,-13.8763319861,-13.7134815712,-13.5114017217,-13.288946031,-13.0659061691,-12.8612490483,-12.6915162186,-12.5695136237,-12.5033805434,-12.49608348,-12.545339241,-12.6439359998,-12.7803945409,-12.9398952544,-13.1053890772,-13.2588106342,-13.3823166436,-13.4594796403,-13.4763746066,-13.4225039595,-13.2915153028,-13.0816773647,-12.7960928625,-12.4426416236,-12.033661064,-11.585382011,-11.1171451999,-10.6504287109,-10.2077215375,-9.81128576007,-9.48186065452,-9.23737572572,-9.09175329475,-9.05389088946,-9.1269153907,-9.30779188597,-9.58734930583,-9.95075300733,-10.3784145999,-10.8472863666,-11.3324471983,-11.808854105,-12.2531119497,-12.6451065587,-12.9693540453,-13.2159420003,-13.3809745332,-13.4664795659,-13.4797885579,-13.4324506365,-13.3387897188,-13.2142498969,-13.0736971418,-12.9298513292,-12.7920103054,-12.6651977636,-12.5498217863,-12.4418757036,-12.3336537094,-12.2148976313,-12.074245219,-11.9008195635,-11.68578682,-11.4237158874,-11.113597492,-10.7594177562,-10.3702281186,-9.95970419603,-9.54523594692,-9.14663606955,-8.78458932331,-8.47898907577,-8.24731613288,-8.10320746369,-8.05533973712,-8.10671815053,-8.25442018263,-8.48980232508,-8.79914005846,-9.16463998556,-9.56573917409,-9.980590509,-10.3876237417,-10.767069081,-11.102332921,-11.3811239245,-11.5962433697,-11.7459773953,-11.8340597409,-11.8692087962,-11.8642778689,-11.8350884313,-11.7990399223,-11.7736052616,-11.7748283992,-11.8159392033,-11.9061920847,-12.0500183709,-12.2465593996,-12.4896190542,-12.7680430829,-13.0665004889,-13.3666120465,-13.6483448065,-13.8915711489,-14.0776778207,-14.1911051921,-14.2206997125,-14.1607727251,-14.0117757056,-13.7805252203,-13.479940428,-13.1282915461,-12.7479980462,-12.3640575302,-12.0022259205,-11.6871015527,-11.4402847313,-11.2787858784,-11.21383706,-11.2502235206,-11.3861972552,-11.6139701572,-11.9207188188,-12.2899760423,-12.7032433607,-13.1416393122,-13.5874018859,-14.0250897416,-14.4423721692,-14.8303564353,-15.1834650405,-15.4989349778,-15.7760569818,-16.0152980226,-16.217452265,-16.3829463889,-16.5113900505,-16.6014183686,-16.6508275311,-16.6569626948,-16.6172835212,-16.5300101418,-16.3947439343,-16.2129650933,-15.9883310941,-15.7267306143,-15.4360782039,-15.1258606968,-14.8064666807,-14.4883478932,-14.181078497,-13.8923948192,-13.6273117624,-13.3874184728,-13.1704507896,-12.9702189731,-12.7769363503,-12.5779507867,-12.358831709,-12.1047178639,-11.8017927249,-11.438731965,-11.0079645336,-10.50660603,-9.93695758312,-9.30651054171,-8.62745113546,-7.91571365478,-7.18967948222,-6.46865678312,-5.77129731781,-5.11411036218,-4.51021950294,-3.96847849501,-3.49302073793,-3.08326741464,-2.73436754343,-2.43799578547,-2.18339705624,-1.95854528658,-1.75127923051,-1.55029070748,-1.3458674406,-1.13032944896,-0.898140029696,-0.645715305228,-0.370995873469,-0.0728754289164,0.249401198288,0.596758717771,0.970638359637,1.37311311006,1.80675511614,2.2742806109,2.77803171154,3.31937647991,3.89811682324,4.51198853562,5.15632101367,5.82389893182,6.50503816343,7.18785772675,7.8587030539,8.50265790228,9.10407647305,9.64707564848,10.1159486912,10.4954920412,10.7712692834,10.9298631963,10.9591809925,10.8488746402,10.5909163806,10.1803323391,9.61605142237,8.90178151058,8.04678935085,7.06644186078,5.98236937381,4.82213709238,3.61835785782,2.40724253091,1.22665646502,0.113822313134,-0.897129955917,-1.7775258802,-2.50617276867,-3.07082400452,-3.46891200589,-3.70746192314,-3.8021941834,-3.77592104956,-3.65642632559,-3.47407569114,-3.25942895328,-3.0411112676,-2.84415123418,-2.688919067,-2.5907110746,-2.55994147165,-2.60283087535,-2.72243078623,-2.91979897485,-3.19514243986,-3.54876965843,-3.98173654733,-4.49612315965,-5.094932221,-5.7816486297,-6.55953575465,-7.43076742927,-8.3955042347,-9.45102090538,-10.5909810889,-11.804939016,-13.0781273659,-14.3915683958,-15.7225219135,-17.0452591856,-18.3321271818,-19.5548443487,-20.6859495362,-21.7003115225,-22.5765985861,-23.2986056823,-23.8563408158,-24.2467823705,-24.4742360436,-24.5502438994,-24.4930281135,-24.3264861688,-24.078789601,-23.7806715992,-23.463516764,-23.1573863455,-22.8891221297,-22.6806705499,-22.547755357,-22.4990028698,-22.5355895485,-22.6514394531,-22.8339524368,-23.0651974906,-23.3234650989,-23.5850431422,-23.8260665305,-24.0242925255,-24.1606700181,-24.2205982954,-24.194804771,-24.0798077157,-23.8779657857,-23.5971481919,-23.2500851077,-22.8534750124,-22.4269322616,-21.9918537257,-21.5702692894,-21.1837206435,-20.8521905333,-20.5930848965,-20.4202568613,-20.3430567612,-20.3653970736,-20.484835182,-20.6916987685,-20.968305891,-21.2883601469,-21.6166249312,-21.9089930294,-22.1130625327,-22.1693030012,-22.0128456684,-21.5758611744,-20.7904054515,-19.5915309115,-17.9203906144,-15.7270225283,-12.9725018335,-9.63019916667,-5.68598232652,-1.13734008987,4.00842758395,9.73664238756,16.027853014,22.8600748424,30.2101113241,38.0534755271,46.3625880679,55.1031604633,64.2289562606,73.6754206118,83.3529395801,93.140690035,102.882132979,112.383164209,121.413759078,129.713642359,137.002106459,142.99163464,147.404516307,149.991229267,150.549063868,148.939315877,145.101398011,139.062411902,130.941063049,120.945258825,109.36326454,96.5488608162,82.9014986738,68.8429352715,54.7922008626,41.1409497106,28.2312506871,16.3376643614,5.65504669058,-3.70704264227,-11.7231007775,-18.4440469816,-23.9842228566,-28.5045169705,-32.1933817452,-35.2475873484,-37.8544391377,-40.1769017484,-42.34267103,-44.4377699991,-46.5047720874,-48.5453228345,-50.5262773631,-52.3885194257,-54.0573884293,-55.4536109192,-56.5037004329,-57.1489362989,-57.352236466,-57.102479013,-56.416078984,-55.3358709873,-53.9275664823,-52.2742351647,-50.4693939056,-48.6093694837,-46.7856307977,-45.0777623678,-43.5476756923,-42.2355328121,-41.1576952673,-40.306823844,-39.6540562888,-39.1529994926,-38.7451075576,-38.3658945549,-37.9513648317,-37.4440430331,-36.7980506507,-35.9827967709,-34.9850114333,-33.8090308466,-32.4754244892,-31.0182161717,-29.4810780991,-27.9129558563,-26.3636050437,-24.879486275,-23.5003821878,-22.2569830977,-21.1695557536,-20.2476809377,-19.4909356854,-18.8903151375,-18.4301426653,-18.0902054201,-17.8478723195,-17.6799959463,-17.5644599886,-17.481299963,-17.4133880543,-17.3467257946,-17.2704261124,-17.176486369,-17.0594560197,-16.9160883909,-16.7450397706,-16.5466461638,-16.3227750254,-16.0767221804,-15.8131077177,-15.5377214325,-15.2572782843,-14.9790647943,-14.7104836845,-14.4585304812,-14.2292564777,-14.0272831839,-13.8554324792,-13.7145249537,-13.6033789378,-13.5190178689,-13.4570673726,-13.412299054,-13.3792584656,-13.3529025738,-13.3291690539,-13.305406763,-13.2806133328,-13.2554500632,-13.2320328043,-13.2135260886,-13.2035922474,-13.205764299,-13.222819109,-13.2562253421,-13.3057300269,-13.3691299434,-13.4422517289,-13.519140093,-13.5924296987,-13.6538561904,-13.6948483989,-13.7071387789,-13.6833328508,-13.6173893743,-13.5049785087,-13.3437022921,-13.1331778421,-12.8749970462,-12.5725862346,-12.2309948321,-11.8566428698,-11.4570533072,-11.0405867663,-10.6161848622,-10.1931163071,-9.78071050173,-9.38805932082,-9.02367081095,-8.69506817673,-8.40834160776,-8.16767633519,-7.97489500881,-7.82906356763,-7.72621500062,-7.6592430191,-7.61800703092,-7.58967180859,-7.55928219819,-7.51054820464,-7.42679195072,-7.29198821257,-7.09181700312,-6.81464198876,-6.45233350972,-6.0008695852,-5.46067094495,-4.83665347004,-4.13800867407,-3.37774509796,-2.57203721253,-1.7394325407,-0.899963782525,-0.0742043268706,0.717703027503,1.45701935626,2.12735939328,2.71558543864,3.21260174767,3.6139938927,3.92045002701,4.13790222188,4.27733887843,4.35426384411,4.38781159662,4.39956560131,4.41216255958,4.44779306475,4.52672494884,4.66597700615,4.87825754448,5.17125611888,5.54734140836,6.00367826643,6.53273767382,7.12313935932,7.76074180724,8.42988019603,9.11464954635,9.80013608803,10.4735114309,11.1249185342,11.7480941228,12.3406891673,12.9042682012,13.4439900844,13.9679967621,14.486560903,15.0110655915,15.5529068163,16.1224197155,16.7279301018,17.3750221313,18.0660909233,18.800217328,19.5733650699,20.3788640785,21.2081140141,22.0514229926,22.8988897054,23.7412414171,24.5705531673,25.3807918045,26.1681493372,26.9311513288,27.670546319,28.3890005642,29.0906378262,29.7804754661,30.4638146386,31.1456430805,31.8301037414,32.5200724017,33.2168744327,33.9201570136,34.6279196983,35.3366936093,36.041847529,36.7379878437,37.4194095552,38.0805492235,38.7163897132,39.3227722605,39.8965837349,40.4358050268,40.9394282893,41.4072735622,41.8397557312,42.2376670152,42.602044334,42.9341817541,43.2358242938,43.5095422747,43.7592402875,43.9907099535,44.2121008917,44.4341689933,44.6701718231,44.9353195263,45.2457521027,45.6170909339,46.0626908816,46.5917849456,47.2077541848,47.9067634472,48.6769759303,49.4984997545,50.3441354651,51.1808963668,51.9721777193,52.6803700284,53.2696572695,53.7087195437,53.9730726917,54.0468213138,53.9236694113,53.6071149451,53.1098401106,52.4523873162,51.6612731132,50.7667334409,49.8003119418,48.7925001005,47.7706168411,46.7570802259,45.7681796164,44.8134078834,43.8953649452,43.0102005713,42.1485289855,41.2967211569,40.4384617868,39.5564454203,38.6340791979,37.6570593518,36.614696394,35.5008817661,34.3146174322,33.0600689919,31.7461498301,30.3856933781,28.9943151765,27.589097833,26.187243875,24.8048319066,23.4557834614,22.1511084728,20.8984549985,19.7019515095,18.5623029899,17.4770874833,16.4411969336,15.4473723448,14.4867943038,13.5497016191,12.6260201468,11.7059891987,10.7807738542,9.84304841876,8.88753021653,7.91143542468,6.91482164343,5.9007775686,4.87542081317,3.84767255451,2.82879309811,1.83168481054,0.869995536269,-0.042917430156,-0.895079868244,-1.6769515771,-2.38233256467,-3.00902694688,-3.55918287425,-4.03925161153,-4.4595411216,-4.83337732817,-5.17592724499,-5.50277907347,-5.82841085326,-6.16470604292,-6.51968594994,-6.89662058069,-7.29364893487,-7.70398804377,-8.11674178936,-8.51824374801,-8.89379359478,-9.22958568262,-9.5145917585,-9.74215432793,-9.91107493817,-10.026039623,-10.0973047404,-10.1396601165,-10.1707805432,-10.2091585322,-10.271869339,-10.3724451679,-10.5191251972,-10.7137027976,-10.9511172028,-11.2198439047,-11.5030385066,-11.7802955996,-12.0298094891,-12.2306770465,-12.365070952,-12.4200358497,-12.3887168711,-12.2709108428,-12.072922773,-11.8067998291,-11.489088487,-11.1393070103,-10.7783385284,-10.4269294122,-10.1044296448,-9.82784803238,-9.61122968301,-9.46530968556,-9.39736493301,-9.41117906918,-9.50705088946,-9.68180690443,-9.92881494141,-10.2380287009,-10.5961159669,-10.9867312125,-11.390985425,-11.788144203,-12.1565543265,-12.4747653917,-12.722783124,-12.8833692355,-12.9432905246,-12.8944159726,-12.7345633477,-12.4680065412,-12.1055729637,-11.6642873856,-11.1665531675,-10.6389007983,-10.1103732708,-9.61065419617,-9.16807387988,-8.80764722826,-8.54930222539,-8.40644696797,-8.38499699347,-8.4829455605,-8.69051269857,-8.99086041649
1,-1.6769515771,-2.38233256467,-3.00902694688,-3.55918287425,-4.03925161153,-4.4595411216,-4.83337732817,-5.17592724499,-5.50277907347,-5.82841085326,-6.16470604292,-6.51968594994,-6.89662058069,-7.29364893487,-7.70398804377,-8.11674178936,-8.51824374801,-8.89379359478,-9.22958568262,-9.5145917585,-9.74215432793,-9.91107493817,-10.026039623,-10.0973047404,-10.1396601165,-10.1707805432,-10.2091585322,-10.271869339,-10.3724451679,-10.5191251972,-10.7137027976,-10.9511172028,-11.2198439047,-11.5030385066,-11.7802955996,-12.0298094891,-12.2306770465,-12.365070952,-12.4200358497,-12.3887168711,-12.2709108428,-12.072922773,-11.8067998291,-11.489088487,-11.1393070103,-10.7783385284,-10.4269294122,-10.1044296448,-9.82784803238,-9.61122968301,-9.46530968556,-9.39736493301,-9.41117906918,-9.50705088946,-9.68180690443,-9.92881494141,-10.2380287009,-10.5961159669,-10.9867312125,-11.390985425,-11.788144203,-12.1565543265,-12.4747653917,-12.722783124,-12.8833692355,-12.9432905246,-12.8944159726,-12.7345633477,-12.4680065412,-12.1055729637,-11.6642873856,-11.1665531675,-10.6389007983,-10.1103732708,-9.61065419617,-9.16807387988,-8.80764722826,-8.54930222539,-8.40644696797,-8.38499699347,-8.4829455605,-8.69051269857,-8.99086041649,-9.36131680324,-9.77501414176,-10.2028170303,-10.6153965573,-10.9852963778,-11.2888365473,-11.507711466,-11.630159363,-11.6516121285,-11.5747748782,-11.4091321861,-11.1699287737,-10.8767214061,-10.5516395479,-10.2175189385,-9.89608047224,-9.60631537897,-9.36320866593,-9.17689080552,-9.05225913576,-8.98906213021,-8.98239737207,-9.02354185477,-9.10101347563,-9.20175592351,-9.31234448264,-9.42012492969,-9.5142179201,-9.5863426411,-9.63143162245,-9.64802007828,-9.63839708393,-9.60850457853,-9.56756854455,-9.52745035603,-9.50171936143,-9.5044716527,-9.54895285507,-9.64607979441,-9.8029899099,-10.0217703177,-10.2985237252,-10.6229122759,-10.9782833951,-11.3424281363,-11.6889590107,-11.9892279279,-12.2146423924,-12.3391857408,-12.3419108413,-12.2091615471,-11.9362862683,-11.5286451524,-11.0017750469,-10.380658749,-9.69813683708,-8.99258914031,-8.3050868291,-7.67626674835,-7.14320299131,-6.73654703287,-6.47818006646,-6.37957401292,-6.44099595423,-6.65161957767,-6.9905318481,-7.42854899975,-7.93068847003,-8.45908767681,-8.97612110839,-9.44744780291,-9.84472454853,-10.147747179,-10.3458325456,-10.4383241002,-10.4341882334,-10.3507570956,-10.2117560591,-10.0448214038,-9.87876016852,-9.74082535247,-9.65427315983,-9.63643412454,-9.69746923253,-9.83990180623,-10.0589256206,-10.343401392,-10.6773795841,-11.0419375221,-11.417099225,-11.7836182569,-12.1244434791,-12.4257473626,-12.6774669519,-12.8733784434,-13.0107878516,-13.0899639039,-13.1134592425,-13.0854599993,-13.0112739312,-12.897019836,-12.7495253589,-12.5763873363,-12.3861084063,-12.1882029416,-11.9931677858,-11.8122380232,-11.6568904131,-11.5381095711,-11.4654852582,-11.4462538314,-11.4844247565,-11.5801382984,-11.7293808605,-11.9241417683,-12.1530354364,-12.4023449449,-12.657378052,-12.9039753328,-13.1299808951,-13.3264834956,-13.4886599958,-13.6161001248,-13.7125547873,-13.7851213333,-13.8429495005,-13.8956128406,-13.9513352664,-14.015285825,-14.0881544505,-14.1651974561,-14.2358961043,-14.2843084988,-14.2901197284,-14.2303152339,-14.0813272288,-13.8214435691,-13.4332309895,-12.905715012,-12.2360782287,-11.4306846331,-10.5053046678,-9.48449564637,-8.40017598481,-7.28951049424,-6.1922905578,-5.14804161603,-4.19311660989,-3.35803498278,-2.66530175169,-2.12789198919,-1.74851781406,-1.51971553318,-1.4247097498,-1.43893927941,-1.53207532644,-1.67033121007,-1.81885661019,-1.94402536302,-2.01545853266,-2.00766649325,-1.90123811846,-1.68354657366,-1.34897629822,-0.898703103603,-0.340079184911,0.31431114467,1.04784880514,1.84124530713,2.6739823106,3.52572336195,4.37759081334,5.21320390455,6.01938945121,6.78650612615,7.50836414297,8.18176785898,8.80575167084,9.38061288248,9.90686482672,10.3842380676,10.8108478666,11.1826246926,11.4930749216,11.7334049111,11.8930066061,11.9602689696,11.9236486052,11.7729070455,11.5004034909,11.1023217684,10.5797094732,9.93921580562,9.19343265475,8.36077067832,7.46483711844,6.53332240535,5.5964453323,4.68504899927,3.82847925471,3.05241092247,2.37681037381,1.81423070614,1.36862310383,1.03481243925,0.798728005445,0.638406468357,0.525701966315,0.428558282187,0.313631391132,0.149007526359,-0.0932507538853,-0.434977738592,-0.890393908456,-1.46533576842,-2.15726640184,-2.95602309613,-3.8451849806,-4.80388806247,-5.80888141558,-6.83660785528,-7.86510448604,-8.87555060869,-9.85333848911,-10.7886007772,-11.6761904091,-12.5151680507,-13.3079024893,-14.0589256605,-14.7737022372,-15.4574718945,-16.1143011378,-16.7464443138,-17.3540655989,-17.9353221075,-18.4867599816,-19.0039372047,-19.482164028,-19.9172466536,-20.3061313379,-20.647370792,-20.9413674016,-21.1903825651,-21.3983329692,-21.5704186985,-21.7126423806,-21.8312829702,-21.9323839785,-22.0213066096,-22.1023859645,-22.1787150663,-22.252067712,-22.3229570246,-22.390812067,-22.4542410926,-22.5113393255,-22.5599942984,-22.5981444034,-22.6239564276,-22.6359040421,-22.6327492078,-22.6134493975,-22.5770318472,-22.5224878317,-22.4487419454,-22.3547421609,-22.2396969503,-22.1034588124,-21.9470230878,-21.7730814143,-21.5865450656,-21.3949386382,-21.2085617727,-21.0403268489,-20.9052035011,-20.8192349887,-20.7981347974,-20.8555212827,-21.0008991998,-21.2375434406,-21.5604751292,-21.9547372392,-22.3941725587,-22.8408809572,-23.2454878816,-23.5482955462,-23.6813166933,-23.5711128042,-23.1422794341,-22.3213467217,-21.0407996697,-19.2428780381,-16.8827979659,-13.9310548397,-10.3745257785,-6.21619303085,-1.47345372627,3.82484342563,9.64230634833,15.939350775,22.6773622699,29.8219786104,37.3448362965,45.223260772,53.4376115747,61.9662998854,70.7788419773,79.8276534065,89.0395768742,98.3083253205,107.489073816,116.396327581,124.805927882,132.461654177,139.086382677,144.397227935,148.123592946,150.026649379,149.918514684,147.67931754,143.270455246,136.742632475,128.237700799,117.983852282,106.28431219,93.5002744714,80.0293744187,66.2814395556,52.6535499172,39.5065314606,27.1448805007,15.8017784706,5.63033980498,-3.29839823751,-10.9909096394,-17.5208377106,-23.0141979047,-27.6317967358,-31.5506872851,-34.9464263314,-37.9776623473,-40.7742122994,-43.4293343345,-45.9964310354,-48.489976449,-50.8900911726,-53.1499210865,-55.204819531,-56.9822884047,-58.4116878912,-59.4328571498,-60.0029761566,-60.1012189881,-59.7309802483,-58.9196810985,-57.7163647157,-56.1874610002,-54.4112274463,-52.4714506373,-50.4510177968,-48.4259410518,-46.4603428706,-44.6027969013,-42.8842742566,-41.3177837085,-39.8996298984,-38.6120624576,-37.4269665455,-36.3101649525,-35.2258718119,-34.1408593963,-33.0279661965,-31.8686741339,-30.6545997611,-29.387863246,-28.0804070093,-26.7524240946,-25.4301196251,-24.143065307,-22.9214177182,-21.7932584653,-20.7822814171,-19.9060029048,-19.1746097194,-18.5904928816,-18.1484491454,-17.8364732095,-17.6370165897,-17.5285577788,-17.4873152309,-17.4889406182,-17.5100528452,-17.529508992,-17.5293506733,-17.495407124,-17.4175742685,-17.2898176702,-17.1099636077,-16.8793456298,-16.6023652947,-16.2860091101,-15.9393440827,-15.5729970398,-15.1986121261,-14.8282787413,-14.4739284424,-14.1467116656,-13.8563797469,-13.610710592,-13.4150243707,-13.271837153,-13.1806951085,-13.1382200874,-13.1383798116,-13.1729737017,-13.2323005519,-13.3059500123,-13.3836403556,-13.4560146783,-13.5153096412,-13.5558256945,-13.5741531478,-13.5691398354,-13.54161808,-13.4939365328,-13.4293630998,-13.35143699,-13.2633505725,-13.1674355626,-13.0648137183,-12.955250717,-12.8372250928,-12.7081951503,-12.565019616,-12.404466542,-12.2237331306,-12.0208988155,-11.7952453561,-11.5473988388,-11.2792755126,-10.9938418574,-10.6947252632,-10.3857321602,-10.0703430574,-9.75125729577,-9.43005429517,-9.10702408287,-8.78120014875,-8.4506043214,-8.11268794661,-7.7649274779,-7.40550742439,-7.03400225108,-6.65195516424,-6.26325008949,-5.87418723769,-5.49320398572,-5.13022945586,-4.79571728802,-4.49945754817,-4.24931487935,-4.05006596012,-3.90250823114,-3.80298195689,-3.74339335969,-3.71175734275,-3.69320648116,-3.67135052208,-3.6298268902,-3.55386280479,-3.43167436731,-3.25555439963,-3.02254325113,-2.73462816406,-2.39846980345,-2.02470276639,-1.62689541402,-1.22028033504,-0.820379252825,-0.441645949264,-0.0962396212921,0.206978476441,0.463157367914,0.671837850939,0.836991687306,0.966733822859,1.0727463374,1.16947096707,1.27313850802,1.40070748334,1.56878156157,1.79256701414,2.08492044582,2.45552572998,2.91022980546,3.45056126312,4.07345357691,4.77119471484,5.53162367207,6.33858912657,7.17267405527,8.01217277735,8.83428545154,9.61647286928,10.3378951045,10.9808440447,11.5320734488,11.9839309503,12.3352032151,12.5915966387,12.7657906172,12.877019468,12.9501647257,13.0143732745,13.1012576392,13.2427791626,13.4689573141,13.8055826155,14.2721304881,14.880073994,15.6317724148,16.5200696879,17.5286743168,18.6333159608,19.8035920712,21.0053414717,22.2033218628,23.3639342728,24.4577351068,25.4615061819,26.3597101276,27.1452333708,27.819399491,28.3913096987,28.8766248929,29.2959401412,29.6729174694,30.0323401824,30.3982367724,30.7921998688,31.2319995935,31.7305635036,32.2953678738,32.928257239,33.6256807556,34.3793059953,35.1769454551,36.003711026,36.8432990617,37.6793044634,38.4964660823,39.281756253,40.0252421409,40.72066357,41.3656900245,41.9618389548,42.5140593574,43.0300090637,43.5190801421,43.9912519077,44.4558721762,44.9204814048,45.3897985161,45.8649796546,46.3432411778,46.8179066627,47.2788970055,47.7136365645,48.1083012051,48.4492909225,48.724775462,48.9261409717,49.0491634836,49.0947534341,49.0691543046,48.983534434,48.8529782131,48.6949535643,48.5273982473,48.3666195133,48.2252327962,48.1103710055,48.0223753442,47.9541332193,47.891163296,47.8124690441,47.692099231,47.5012765491,47.2108929604,46.7941293256,46.2289417074,45.500168955,44.6010545474,43.5340360372,42.3107308757,40.9511290232,39.4820809946,37.9352362488,36.3446346644,34.7441796491,33.1652241956,31.6344819066,30.1724361333,28.7923657543,27.5000409467,26.2940731062,25.1668376344,24.1058348369,23.0953195748,22.1180182975,21.1567623788,20.1958956407,19.2223557508,18.2263769448,17.2018081723,16.1460800837,15.0598820719,13.9466256535,12.8117745194,11.6621180006,10.5050569454,9.34796137182,8.19764837297,7.06001577126,5.93985084809,4.84081433171,3.76558010138,2.7160944447,1.69390830885,0.700532967296,-0.262226990495,-1.19200137862,-2.08567019818,-2.9392831572,-3.7480873631,-4.50665819101,-5.20912166227,-5.84945304429,-6.42183547335,-6.9210633313,-7.34297635675,-7.68491001016,-7.94614373968,-8.12832125339,-8.23580734251,-8.27593724689,-8.25911039141,-8.1986833005,-8.11062802457,-8.01294217504,-7.92482264732,-7.86564387371,-7.85380859134,-7.90556007888,-8.03385606639,-8.24740453037,-8.54995086608,-8.93988607632,-9.41021835599,-9.94891761628,-10.5396068246,-11.1625398723,-11.7957786094,-12.4164669922,-13.0021008414,-13.5317064144,-13.9868649142,-14.3525463595,-14.6177389079,-14.7758752637,-14.8250654597,-14.7681462585,-14.6125539834,-14.3700226102,-14.0561052255,-13.6895167111,-13.2913000038,-12.8838279292,-12.4896672217,-12.1303501336,-11.8251201203,-11.5897379501,-11.4354482227,-11.3682085143,-11.3882708489,-11.4901778911,-11.6631976693,-11.892176738,-12.1587491423,-12.4428028652,-12.7240798832,-12.983771748,-13.2059699581,-13.3788393966,-13.4954040213,-13.5538667447,-13.557428921,-13.5136259817,-13.4332491899,-13.3289722082,-13.2138378797,-13.09977922,-12.9963455623,-12.9097798845,-12.8425495826,-12.7933758924,-12.7577440756,-12.7288157199,-12.6986143534,-12.6593229563,-12.6045209558,-12.530199737,-12.4354275294,-12.322582497,-12.1971309629,-12.0669885677,-11.9415576864
1,-8.23580734251,-8.27593724689,-8.25911039141,-8.1986833005,-8.11062802457,-8.01294217504,-7.92482264732,-7.86564387371,-7.85380859134,-7.90556007888,-8.03385606639,-8.24740453037,-8.54995086608,-8.93988607632,-9.41021835599,-9.94891761628,-10.5396068246,-11.1625398723,-11.7957786094,-12.4164669922,-13.0021008414,-13.5317064144,-13.9868649142,-14.3525463595,-14.6177389079,-14.7758752637,-14.8250654597,-14.7681462585,-14.6125539834,-14.3700226102,-14.0561052255,-13.6895167111,-13.2913000038,-12.8838279292,-12.4896672217,-12.1303501336,-11.8251201203,-11.5897379501,-11.4354482227,-11.3682085143,-11.3882708489,-11.4901778911,-11.6631976693,-11.892176738,-12.1587491423,-12.4428028652,-12.7240798832,-12.983771748,-13.2059699581,-13.3788393966,-13.4954040213,-13.5538667447,-13.557428921,-13.5136259817,-13.4332491899,-13.3289722082,-13.2138378797,-13.09977922,-12.9963455623,-12.9097798845,-12.8425495826,-12.7933758924,-12.7577440756,-12.7288157199,-12.6986143534,-12.6593229563,-12.6045209558,-12.530199737,-12.4354275294,-12.322582497,-12.1971309629,-12.0669885677,-11.9415576864,-11.8305767393,-11.7429397158,-11.6856436774,-11.6629985237,-11.6761911584,-11.7232427983,-11.7993426242,-11.8974923593,-12.0093618528,-12.1262390324,-12.239958324,-12.3437062829,-12.4326268223,-12.5041764485,-12.5582089535,-12.5967967883,-12.6238212111,-12.6443837122,-12.6641056642,-12.6883904861,-12.7217224855,-12.7670694906,-12.8254434966,-12.8956562935,-12.9742873411,-13.055861579,-13.1332178996,-13.1980361048,-13.2414811775,-13.2549177726,-13.2306443623,-13.1625954555,-13.0469619509,-12.8826840738,-12.6717784633,-12.4194706923,-12.1341162942,-11.8269063445,-11.5113667992,-11.2026735244,-10.9168171067,-10.6696628524,-10.4759609737,-10.348368382,-10.2965454694,-10.3263883405,-10.439449694,-10.6325912177,-10.8978982214,-11.2228741067,-11.5909182708,-11.9820760646,-12.3740335191,-12.7433132931,-13.0666125471,-13.3222093078,-13.4913525205,-13.5595436238,-13.517615375,-13.3625180483,-13.0977350117,-12.7332696078,-12.2851731293,-11.7746186864,-11.2265660749,-10.6681049286,-10.1266021958,-9.62780882747,-9.19409352646,-8.84296493875,-8.58601772544,-8.42839569198,-8.36881183694,-8.40010723317,-8.51027508545,-8.68383016,-8.90337295686,-9.1511858736,-9.41070534496,-9.66773696043,-9.91131577218,-10.1341569421,-10.3326882447,-10.5067016101,-10.6587015808,-10.7930597115,-10.9151011044,-11.0302491805,-11.1433366088,-11.2581566919,-11.377286442,-11.502168095,-11.6333977283,-11.7711437672,-11.9156074061,-12.0674411235,-12.228057489,-12.3997834825,-12.5858405944,-12.7901542994,-13.0170158901,-13.2706339628,-13.5546215212,-13.8714678006,-14.222042374,-14.6051743473,-15.0173430285,-15.4525094186,-15.9021103598,-16.3552286785,-16.7989428108,-17.2188485683,-17.5997348107,-17.926384569,-18.1844637045,-18.3614502735,-18.4475495423,-18.4365330396,-18.3264367464,-18.1200549027,-17.8251724774,-17.4544908374,-17.0252173078,-16.5583103149,-16.0773978984,-15.607417681,-15.1730580616,-14.7971087584,-14.4988484689,-14.2926037485,-14.1866038893,-14.1822322792,-14.2737390717,-14.4484386408,-14.6873743923,-14.966398147,-15.257584358,-15.5308814453,-15.7558926688,-15.9036759381,-15.9484547353,-15.8691402203,-15.6505770606,-15.284441904,-14.7697430332,-14.1128921993,-13.3273445399,-12.4328286348,-11.4542137364,-10.4200821919,-9.36109012538,-8.3082084196,-7.29094051531,-6.33561578835,-5.46385865298,-4.69133323022,-4.02685827356,-3.47197312628,-3.02101014566,-2.66169218202,-2.3762279197,-2.14282802925,-1.93751787024,-1.73608573674,-1.51598661508,-1.25802456732,-0.947662150697,-0.575848374988,-0.139310587347,0.359687212037,0.914063537302,1.51301538757,2.14335880785,2.79096581295,3.44214948511,4.08486382987,4.7096119197,5.30999181581,5.88285119657,6.42806436837,6.94798449886,7.44665455867,7.92887892258,8.39926251874,8.86131689601,9.31671534464,9.76475568138,10.2020629953,10.6225390149,11.0175431703,11.37627567,11.6863263757,11.9343542011,12.1068671359,12.1910781375,12.1758123981,12.0524341811,11.8157468365,11.4648011173,11.0035301073,10.441120271,9.79203249518,9.07560687486,8.31521940647,7.53700395631,6.76820324795,6.03526151627,5.36181215809,4.76674051726,4.26251118801,3.85393932227,3.53755644543,3.30167452176,3.12719013837,2.98909825719,2.85860880351,2.70568813787,2.50179077521,2.22251339874,1.84989971885,1.37415375949,0.794578573955,0.119639807393,-0.633852667546,-1.4423597461,-2.27786042151,-3.11050845844,-3.91144007707,-4.65546274238,-5.32336675196,-5.90363525876,-6.39338348515,-6.79843175992,-7.1325046208,-7.41564119288,-7.67198932718,-7.92722583813,-8.20588760424,-8.52890684544,-8.91161661635,-9.3624323485,-9.88232986574,-10.4651416165,-11.0985951829,-11.7659350811,-12.447910621,-13.1248843949,-13.7788184397,-14.3949253589,-14.9628242564,-15.477108926,-15.9373098101,-16.3473028033,-16.7142787349,-17.0474308338,-17.3565395434,-17.650633169,-17.9368801003,-18.2198277156,-18.5010510232,-18.7792183438,-19.0505291009,-19.3094357905,-19.549532728,-19.7644813115,-19.9488466942,-20.0987427146,-20.2122165775,-20.2893460798,-20.3320637528,-20.3437586939,-20.3287340622,-20.291613662,-20.2367935827,-20.1680247606,-20.0881912954,-19.9993203974,-19.9028266509,-19.7999595124,-19.6923918335,-19.5828614889,-19.4757603636,-19.3775570761,-19.2969432712,-19.2446087806,-19.2325785559,-19.2730835541,-19.3769871781,-19.5518452003,-19.7997350986,-20.115043553,-20.4824406734,-20.8752887301,-21.2547256933,-21.5696268571,-21.7575821165,-21.746936349,-21.4598325281,-20.816080921,-19.7375651962,-18.1528024698,-16.0012151185,-13.236661527,-9.82981993373,-5.76912634606,-1.06012815524,4.27668507612,10.209296238,16.6983408548,23.7014161802,31.1768006913,39.0858797595,47.3936929245,56.0672380175,65.0714671235,74.3632552277,83.883970443,93.5515760566,103.253401804,112.840796162,122.126790071,130.887662499,138.868918914,145.795715036,151.387237042,155.374050773,157.517020327,157.626123325,155.577390568,151.326284079,144.91609009,136.480314231,126.238584111,114.48614172,101.5775937,87.9061299602,73.8798687077,59.8972897439,46.3238369481,33.4716806824,21.5843304272,10.8273038735,1.28544399534,-7.03319660615,-14.1876323763,-20.2896556764,-25.4866354488,-29.9432362556,-33.8238593169,-37.2773852015,-40.4254261372,-43.3548306092,-46.1146858885,-48.7175938134,-51.1445990822,-53.3528599823,-55.2849852321,-56.8789188801,-58.0773266793,-58.8356009943,-59.1278299085,-58.9503403209,-58.3226960534,-57.2862850989,-55.9008443349,-54.2394302123,-52.3824417844,-50.4113364664,-48.4026532927,-46.4228812937,-44.5245925932,-42.7441130378,-41.1008408249,-39.5981599306,-38.2257449114,-36.962930926,-35.7827392323,-34.656111279,-33.5559151065,-32.4603409523,-31.3553889098,-30.2362589075,-29.1075713558,-27.9824653958,-26.880730841,-25.8262200664,-24.8438490236,-23.9565264008,-23.1823442696,-22.5323238232,-22.0089413075,-21.6055703205,-21.3068776012,-21.0901110975,-20.9271315404,-20.7869700838,-20.6386502025,-20.4539945245,-20.2101464898,-19.8915704706,-19.4913484842,-19.0116618302,-18.4634257793,-17.8651277742,-17.2409966571,-16.6186942231,-16.0267636998,-15.4920874025,-15.0375956587,-14.6804325708,-14.4307263123,-14.2910403262,-14.2565066315,-14.3155732342,-14.4512427224,-14.6426440678,-14.866766589,-15.100192754,-15.3206910218,-15.5085652116,-15.6476961079,-15.7262479939,-15.737043178,-15.6776291792,-15.5500758885,-15.3605449297,-15.1186726464,-14.8368042551,-14.529112649,-14.2106339942,-13.8962557429,-13.599701535,-13.3325699554,-13.1034962881,-12.917512897,-12.775679669,-12.6750383763,-12.6089146632,-12.5675529457,-12.5390294252,-12.5103537415,-12.4686464766,-12.4022716018,-12.3018112098,-12.1607927727,-11.9761123182,-11.7481344473,-11.4804861627,-11.1795910827,-10.854010175,-10.5136629762,-10.1690002648,-9.83018862756,-9.50635385304,-9.20491794263,-8.93105673148,-8.68730257429,-8.47331764604,-8.28586433591,-8.11899549557,-7.96447589342,-7.81242683854,-7.65216093839,-7.4731473591,-7.26602437181,-7.0235597149,-6.7414537424,-6.41888751713,-6.05873873925,-5.66742225114,-5.2543564666,-4.83110678676,-4.41030277134,-4.00445762657,-3.62482997325,-3.28045808459,-2.97746954762,-2.71873015586,-2.50385059529,-2.32952405486,-2.19012819844,-2.0784961106,-1.98674622953,-1.9070620071,-1.83232692647,-1.75654640762,-1.67502055278,-1.58426594432,-1.4817170448,-1.36526559208,-1.23271773563,-1.08126148095,-0.907039318984,-0.704911333435,-0.468472205355,-0.190352361686,0.137207784458,0.521565144639,0.968755714402,1.4825692375,2.06374304588,2.70938985429,3.41274561404,4.16328285042,4.94718926096,5.74816816936,6.54848300269,7.3301461605,8.07614442769,8.77159691094,9.40475427475,9.96776629009,10.4571655206,10.8740369102,11.2238658878,11.516081319,11.7633333831,11.9805685083,12.1839815656,12.3899369456,12.6139522863,12.8698297666,13.1690001768,13.5201169158,13.9289052243,14.3982420682,14.928419332,15.5175304952,16.161919279,16.8566363102,17.5958636987,18.3732837717,19.1823832149,20.0166947261,20.8699839535,21.7363907059,22.6105320738,23.4875734926,24.3632735685,25.2340098012,26.0967936719,26.9492828829,27.7897945914,28.6173165285,29.4315045885,30.2326485863,31.021585689,31.7995461717,32.5679290717,33.3280234426,34.0807090936,34.8261831305,35.5637609926,36.291791758,37.0077093701,37.7082185812,38.3895920278,39.048037441,39.6800845255,40.2829408164,40.8547744369,41.394897075,41.9038391091,42.3833262314,42.8361789475,43.266160557,43.6777959414,44.0761755476,44.4667502811,44.8551168129,45.2467903884,45.6469630482,46.0602477981,46.4904124597,46.940110277,47.4106181568,47.9015980007,48.4109015466,48.9344430826,49.4661652728,49.9981192301,50.5206701349,51.0228255172,51.4926681323,51.9178629657,52.286200706,52.586138303,52.8072997421,52.9409052365,52.9801032705,52.9201865119,52.7586792294,52.4952906165,52.1317357933,51.6714348088,51.1191100698,50.4803139636,49.7609297741,48.9666980362,48.1028243256,47.1737203185,46.1829160358,45.1331578824,44.0266775364,42.8655866371,41.6523284252,40.3901058724,39.0832094139,37.7371856341,36.3588173369,34.9559194322,33.536987375,32.1107595763,30.6857680501,29.2699504958,27.8703822767,26.4931607865,25.1434419671,23.8255952332,22.5434151589,21.3003114779,20.0993968025,18.9434051629,17.834402876,16.7732931966,15.7591626991,14.7885635931,13.8548639456,12.9478184148,12.0535084535,11.1547695062,10.2321650766,9.26549050894,8.2357040397,7.12710269967,5.92949974067,4.6401299316,3.26501638545,1.81957861367,0.328340964584,-1.17629721313,-2.65615761074,-4.07006913118,-5.37708477765,-6.53981764765,-7.52756915616,-8.31894499647,-8.9037102743,-9.28371653231,-9.47282910891,-9.49588161595,-9.38677431672,-9.18590601163,-8.93717866884,-8.68483758664,-8.47040766353,-8.32996134739,-8.29191064386,-8.3754596436,-8.58979143094,-8.93400041496,-9.39772422989,-9.96238302941,-10.6029004813,-11.2897599048,-11.9912391136,-12.6756664668,-13.3135465611,-13.8794161258,-14.3533095527,-14.7217404693,-14.9781417596,-15.1227505537,-15.1619735846,-15.1073164689,-14.9740012299,-14.7794233973,-14.5416089004,-14.2778204545,-14.0034351033,-13.7311734483,-13.4707130239,-13.2286703131,-13.0088949763,-12.8129914898,-12.6409705782,-12.4919354222,-12.3647224485,-12.2584385677,-12.1728607845,-12.1086859612,-12.0676353123,-12.0524286019,-12.0666470587,-12.1145031129,-12.2005315943,-12.3292138053,-12.5045452156,-12.7295604996,-13.0058361591,-13.3330002173,-13.7082890306,-14.1262008268,-14.5783009623,-15.0532318643,-15.5369691586,-16.0133445864,-16.4648282683,-16.8735317256,-17.222363546,-17.4962458611,-17.6832849432,-17.7757850936,-17.7710022368,-17.671551672,-17.4854115478,-17.2254973534,-16.9088201965,-16.5552798906,-16.186180034,-15.8225834138,-15.4836492523,-15.1851059643,-14.938011284,-14.7479334799,-14.6146521282,-14.5324264773
1,-10.6029004813,-11.2897599048,-11.9912391136,-12.6756664668,-13.3135465611,-13.8794161258,-14.3533095527,-14.7217404693,-14.9781417596,-15.1227505537,-15.1619735846,-15.1073164689,-14.9740012299,-14.7794233973,-14.5416089004,-14.2778204545,-14.0034351033,-13.7311734483,-13.4707130239,-13.2286703131,-13.0088949763,-12.8129914898,-12.6409705782,-12.4919354222,-12.3647224485,-12.2584385677,-12.1728607845,-12.1086859612,-12.0676353123,-12.0524286019,-12.0666470587,-12.1145031129,-12.2005315943,-12.3292138053,-12.5045452156,-12.7295604996,-13.0058361591,-13.3330002173,-13.7082890306,-14.1262008268,-14.5783009623,-15.0532318643,-15.5369691586,-16.0133445864,-16.4648282683,-16.8735317256,-17.222363546,-17.4962458611,-17.6832849432,-17.7757850936,-17.7710022368,-17.671551672,-17.4854115478,-17.2254973534,-16.9088201965,-16.5552798906,-16.186180034,-15.8225834138,-15.4836492523,-15.1851059643,-14.938011284,-14.7479334799,-14.6146521282,-14.5324264773,-14.490818856,-14.4759973346,-14.472384264,-14.4644729207,-14.4386092529,-14.3845338378,-14.296502626,-14.1738526172,-14.0209453204,-13.8464983596,-13.6623934204,-13.4821157454,-13.3190266515,-13.1846893178,-13.0874572691,-13.0314969714,-13.0163564716,-13.0371188792,-13.0851021409,-13.1489954711,-13.216267965,-13.2746539033,-13.3135158909,-13.3249110746,-13.3042334387,-13.2503696629,-13.1653779378,-13.0537679621,-12.9215159114,-12.774982291,-12.6199083928,-12.4606479736,-12.2997485729,-12.1379390255,-11.9745154592,-11.8080567947,-11.6373506332,-11.4623775113,-11.285189378,-11.1105279015,-10.9460586618,-10.8021450621,-10.6911454934,-10.6262821193,-10.620192161,-10.6833252129,-10.8223856456,-11.0390312443,-11.3290235506,-11.6819807996,-12.0818139949,-12.5078384333,-12.9364593888,-13.3432473744,-13.7051609993,-14.0026548381,-14.2214286493,-14.353627355,-14.3983778713,-14.3616365924,-14.2554072687,-14.0964613083,-13.9047417035,-13.7016520655,-13.5084224309,-13.3447071351,-13.2275148868,-13.1705077818,-13.183645565,-13.273103758,-13.4413663412,-13.6873889129,-14.0067459838,-14.3917117935,-14.8312704414,-15.3110993232,-15.8136103344,-16.3181570773,-16.8015165622,-17.2387278731,-17.6043203746,-17.8738978886,-18.0259743262,-18.0438935384,-17.9176236381,-17.6452025229,-17.2336307077,-16.6990581316,-16.0661862945,-15.3668951443,-14.6381931868,-13.9196674003,-13.2506668645,-12.6674839434,-12.2007965053,-11.8736049025,-11.699842428,-11.683764614,-11.8201400014,-12.0951829154,-12.4880970462,-12.9730453521,-13.5213324952,-14.1035827976,-14.6917180983,-15.2605812969,-15.7891061895,-16.2609948303,-16.6649222806,-16.9943379952,-17.2469675391,-17.4241347145,-17.5300223365,-17.5709722407,-17.5548958102,-17.4908305607,-17.388641537,-17.2588335365,-17.1124159396,-16.9607498747,-16.8153099362,-16.6873100673,-16.5871732578,-16.5238625704,-16.5041300672,-16.5317732634,-16.6070092915,-16.7260802884,-16.8811876459,-17.0608190711,-17.2504855633,-17.4338324279,-17.5940372018,-17.715364938,-17.7847229802,-17.7930464125,-17.7363533321,-17.616335884,-17.4403966988,-17.2210970526,-16.9750467304,-16.7213286914,-16.4796061388,-16.2680982335,-16.1016285193,-15.9899454646,-15.9364889518,-15.937733866,-15.9831870157,-16.0560516651,-16.1345104076,-16.1935177581,-16.2069447629,-16.1498848454,-16.0009170024,-15.7441296515,-15.370731969,-14.8801134703,-14.2802526265,-13.5874205767,-12.8251773571,-12.0227151991,-11.2126629361,-10.4285209535,-9.70193955357,-9.06007799815,-8.52328238871,-8.10329698226,-7.80217810291,-7.61201769004,-7.51551126603,-7.48732941523,-7.49617912424,-7.50737761924,-7.4857124211,-7.39833228808,-7.21740817,-6.92232274208,-6.50119032876,-5.95157215365,-5.28032886951,-4.50263618154,-3.6402726125,-2.71936307723,-1.7678191891,-0.812748642771,0.121894028078,1.01717498314,1.86038547754,2.64547898163,3.37272256279,4.04762857834,4.67930743972,5.27843981067,5.85510157072,6.41668428963,6.9661379994,7.50072477177,8.01141612482,8.4830009267,8.89490019624,9.22261798305,9.43969941126,9.52002238696,9.44022096497,9.18202703761,8.73432290136,8.09471971474,7.27051450239,6.27892871931,5.14659061649,3.90828679437,2.60506996125,1.28186447893,-0.0152467048242,-1.24184541614,-2.35789891232,-3.33017991727,-4.13421954702,-4.75566900506,-5.19099341004,-5.44746887742,-5.54249878645,-5.50230541202,-5.36008846177,-5.15377281707,-4.92349379134,-4.70898813122,-4.54707028414,-4.46937324209,-4.50051912267,-4.656855378,-4.94584897557,-5.36617652301,-5.90848887827,-6.55677101461,-7.29016762787,-8.08510600405,-8.91752211142,-9.76498536667,-10.6085240493,-11.4339788041,-12.23275643,-13.0019177285,-13.7436059889,-14.4638986253,-15.1712339728,-15.8746185128,-16.5818484893,-17.2979786195,-18.0242380058,-18.7575324223,-19.4905903967,-20.2127193991,-20.9110517978,-21.5720915516,-22.1833326641,-22.7347155145,-23.2197180566,-23.6359403412,-23.985122405,-24.2726233565,-24.5064686708,-24.6961306506,-24.851235907,-24.9803916594,-25.090292932,-25.1852220448,-25.2669885795,-25.335291216,-25.3884210593,-25.424176926,-25.4408326828,-25.4379892636,-25.4171608747,-25.381984201,-25.3379959191,-25.291989747,-25.251030471,-25.2212595502,-25.2066665635,-25.2080166485,-25.222113384,-25.241540607,-25.254970539,-25.2480565901,-25.2048552178,-25.1096501742,-24.9489924979,-24.7137284769,-24.400771423,-24.0143842586,-23.5667780539,-23.0778932367,-22.57430893,-22.0873128973,-21.650249573,-21.2953369211,-21.0501974607,-20.9343813682,-20.9561696985,-21.1099346655,-21.3743035852,-21.7113256105,-22.0667776497,-22.3716693778,-22.5449187882,-22.4970724742,-22.1348445881,-21.3661541356,-20.1052633469,-18.2775728793,-15.8236245938,-12.7019091479,-8.89017836069,-4.38511849121,0.799561887977,6.63635872073,13.0880365987,20.1118899124,27.6634732912,35.6990854134,44.1764122223,53.0529623232,62.2822367077,71.8079304595,81.5568191157,91.4312855331,101.302645075,111.006488059,120.341156363,129.07020616,136.929304869,143.637512992,148.912370568,152.487711123,154.132728047,153.670571645,150.994691507,146.081265546,138.996358515,129.896895834,119.025078406,106.696450796,93.2824172157,79.1885263321,64.8302672686,50.6083886664,36.8858321274,23.968238752,12.0896449926,1.40446226345,-8.01380850173,-16.1673631013,-23.123261861,-28.9983832139,-33.9419088371,-38.1172127152,-41.6849359596,-44.7887481678,-47.5448740793,-50.0359645694,-52.3093802087,-54.3794939367,-56.2332537344,-57.8380060403,-59.1504767515,-60.1258320098,-60.7258741358,-60.9256380533,-60.7179056202,-60.1154164585,-59.150796843,-57.8744332629,-56.35067286,-54.6528350854,-52.8575699072,-51.039104121,-49.2638864396,-47.5860806816,-46.0442690385,-44.6596172792,-43.4356246502,-42.3594396232,-41.4045788697,-40.5347547367,-39.7084112347,-38.8835035045,-38.0220398703,-37.0939417351,-36.0798608529,-34.972715698,-33.7778536865,-32.5118965488,-31.2004653247,-29.8750945274,-28.5697197615,-27.3171501512,-26.1459123029,-25.0777805999,-24.1262028995,-23.2957100871,-22.582280918,-21.9745337807,-21.4555424981,-21.0050281573,-20.6016644818,-20.2252488883,-19.8585307922,-19.4885464529,-19.1073777485,-18.7123220397,-18.3055234153,-17.8931654046,-17.4843576137,-17.0898625092,-16.72080508,-16.3874904741,-16.0984269879,-15.8596183591,-15.6741542767,-15.5420947173,-15.4606149201,-15.424356035,-15.4259137776,-15.4563945038,-15.5059740013,-15.5644069757,-15.6214525436,-15.6672011647,-15.6923092923,-15.6881668626,-15.6470360037,-15.5622033584,-15.4281808526,-15.240971138,-14.9983882449,-14.7003975113,-14.3494183191,-13.9505236776,-13.5114746161,-13.0425440003,-12.556110535,-12.0660345699,-11.5868574787,-11.132890798,-10.7172761443,-10.3511004963,-10.0426446019,-9.79682777229,-9.61489333819,-9.49435809262,-9.42922786328,-9.4104613668,-9.42664692222,-9.46484227149,-9.51151694902,-9.55352932489,-9.5790666295,-9.57847619627,-9.54492026595,-9.47479552722,-9.36787277816,-9.22713225229,-9.0582961721,-8.86909051158,-8.66829967618,-8.4647065183,-8.26603098232,-8.07798919175,-7.90358759425,-7.74274274038,-7.5922783873,-7.44630310771,-7.29692098104,-7.13518352369,-6.95216006991,-6.73999105479,-6.49279519601,-6.20732506482,-5.88330139685,-5.52339934568,-5.13290422267,-4.71909446658,-4.29044016833,-3.85572209113,-3.42317678066,-2.99975918917,-2.59058935887,-2.19861997053,-1.82453263679,-1.4668467232,-1.1222072165,-0.785808111761,-0.451904205579,-0.114365590372,0.232766265169,0.594755920425,0.975713619258,1.37821981212,1.80305111784,2.24901860075,2.71292474258,3.18964327243,3.67232639173,4.15274560958,4.62177257701,5.07000173973,5.48850511682,5.86969086701,6.20821354614,6.50185905951,6.75230666245,6.96565972567,7.15264097878,7.32836871796,7.51166715395,7.72391305681,7.987476374,8.32386750743,8.75175105904,9.28501844497,9.93112480369,10.6898861418,11.5528999236,12.5036977923,13.5186667257,14.5686914166,15.6213858374,16.6437078132,17.6046990075,18.4780730216,19.244389989,19.8926046585,20.420848585,20.8363942989,21.1548376352,21.3986122737,21.5950093878,21.7739104492,21.9654519412,22.197829235,22.4954173602,22.8773439178,23.3565990093,23.9397132565,24.6269816306,25.4131616922,26.2885339436,27.2401832202,28.2533465289,29.312676184,30.4032875896,31.5114968598,32.6252011367,33.7339084146,34.8284764578,35.9006634984,36.942619157,37.9464477527,38.9039573797,39.806670549,40.6461227849,41.4144229265,42.1050015786,42.7134394303,43.2382500855,43.6814946195,44.0491255874,44.350991852,44.6004763099,44.8137807275,45.008910937,45.2044480611,45.4182146556,45.6659569262,45.9601645708,46.3091382779,46.7163925064,47.1804500007,47.6950474882,48.2497326354,48.8307943056,49.4224353002,50.0080729001,50.5716410831,51.0987713931,51.5777470778,52.0001547561,52.3611948592,52.6596503872,52.8975471826,53.0795636202,53.2122616094,53.3032147423,53.3601054051,53.389853381,53.3978267807,53.3871748659,53.3583138127,53.3085918382,53.2321587108,53.1200640619,52.9606057691,52.7399408555,52.4429548692,52.0543613723,51.5599729623,50.9480533911,50.2106327327,49.3446504872,48.3527899283,47.2438829918,46.0327976469,44.7397659217,43.3891664103,42.0078349874,40.6230351988,39.2602680073,37.9411321862,36.6814563556,35.4899088663,34.367252707,33.3063521865,32.2929616022,31.3072411606,30.3258619917,29.3244911798,28.2803993662,27.1749147454,25.9954612246,24.7369638864,23.4024762249,22.0029717719,20.5563363299,19.0856844886,17.6171953664,16.1777098586,14.792350118,13.4824099357,12.2637244605,11.145665419,10.1308325013,9.21543271721,8.39026672041,7.64218195244,6.95581193725,6.31540125919,5.70651649153,5.11746303537,4.54026422107,3.9711093116,3.41023762757,2.86129199433,2.33023948198,1.82401283698,1.34906361007,0.910030709531,0.508712156199,0.143484313498,-0.190751463924,-0.5020891628,-0.800672542978,-1.09741223778,-1.40253761381,-1.72417705539,-2.06715806532,-2.43219249481,-2.81556452921,-3.209374519,-3.60231793977,-3.98090580793,-4.33097207395,-4.63927502869,-4.89499019658,-5.09091301964,-5.22423678872,-5.2968358268,-5.31505388,-5.28906066781,-5.2318858147,-5.15826384007,-5.08342652201,-5.02196367955,-4.98684616179,-4.98867182291,-5.03516186319,-5.13090502948,-5.27732327914,-5.4728162045,-5.71303386278,-5.99122899145,-6.2986489919,-6.62494315943,-6.95857786755,-7.28726753064,-7.59843801579,-7.87973885705,-8.11961061597,-8.30789621531,-8.43646444321,-8.49979561659,-8.49546881584,-8.42449041424,-8.29141500288,-8.10422940792,-7.87399380149,-7.61425667484,-7.34027996763,-7.06812581862,-6.81366702352,-6.59158941675,-6.41445589461,-6.29189813601,-6.22999269841,-6.23086336271,-6.29253310611,-6.40902977969,-6.5707324667,-6.76493260451,-6.97657556875,-7.18914326499,-7.38563438537,-7.54959474198,-7.66614474179,-7.72294489194,-7.71103462708,-7.62547732513,-7.46574830667,-7.23581531198,-6.94388280575,-6.60180065203,-6.22417094035,-5.82721999729,-5.42753153613,-5.04075726366
1,-5.4728162045,-5.71303386278,-5.99122899145,-6.2986489919,-6.62494315943,-6.95857786755,-7.28726753064,-7.59843801579,-7.87973885705,-8.11961061597,-8.30789621531,-8.43646444321,-8.49979561659,-8.49546881584,-8.42449041424,-8.29141500288,-8.10422940792,-7.87399380149,-7.61425667484,-7.34027996763,-7.06812581862,-6.81366702352,-6.59158941675,-6.41445589461,-6.29189813601,-6.22999269841,-6.23086336271,-6.29253310611,-6.40902977969,-6.5707324667,-6.76493260451,-6.97657556875,-7.18914326499,-7.38563438537,-7.54959474198,-7.66614474179,-7.72294489194,-7.71103462708,-7.62547732513,-7.46574830667,-7.23581531198,-6.94388280575,-6.60180065203,-6.22417094035,-5.82721999729,-5.42753153613,-5.04075726366,-4.68042959963,-4.35699530826,-4.07716844409,-3.84366781093,-3.65536171393,-3.50779596049,-3.39403536552,-3.30571044334,-3.23413546652,-3.17135635514,-3.11099922973,-3.04882218265,-2.98291979575,-2.91358445468,-2.84288005389,-2.77402156754,-2.7106710413,-2.65625569006,-2.61339157056,-2.58346481386,-2.56639043923,-2.5605435188,-2.5628428133,-2.56896268165,-2.57365112053,-2.571134662,-2.55559021118,-2.5216585235,-2.46496585144,-2.38261299371,-2.27358795017,-2.13906122282,-1.98253096578,-1.80979683271,-1.62875456887,-1.44901675602,-1.28137774982,-1.13715217472,-1.0274260843,-0.962267997397,-0.949953358253,-0.99626002937,-1.10389321567,-1.27209450645,-1.49648054523,-1.76914197289,-2.07901341405,-2.41250189372,-2.75433634178,-3.0885773542,-3.39970691878,-3.67370515434,-3.89901768314,-4.06732452872,-4.17403933637,-4.21849447757,-4.20380009284,-4.13639940014,-4.02537433721,-3.88158067964,-3.71670692216,-3.54235463297,-3.36922956703,-3.20651409427,-3.06146550444,-2.93925554896,-2.84303838497,-2.77421033921,-2.73280766685,-2.71797837112,-2.72846093942,-2.76300620146,-2.82068829058,-2.9010665808,-3.00418135051,-3.13038952338,-3.28006999088,-3.45324729493,-3.6491949009,-3.86608310986,-4.10073160714,-4.34851413525,-4.60344528199,-4.85845922307,-5.10586875242,-5.337970668,-5.54774164035,-5.72954946853,-5.87979161715,-5.99736980373,-6.0839189458,-6.14373197549,-6.18335769402,-6.21089350464,-6.23504265043,-6.26404837227,-6.30464635666,-6.36118504806,-6.43504789404,-6.52447376503,-6.62481676996,-6.72922253201,-6.82963470784,-6.91799360268,-6.98745705666,-7.03346784365,-7.0545126946,-7.05246234392,-7.03244261002,-7.00225395373,-6.97142086841,-6.95000336827,-6.94733372201,-6.97084879094,-7.02517182551,-7.11156061874,-7.2277874418,-7.36845770554,-7.52571669403,-7.69024441899,-7.85240384428,-8.00339157105,-8.13624410464,-8.24657606201,-8.33296591956,-8.39695482958,-8.44267750068,-8.47619316125,-8.50462194116,-8.53521251161,-8.57446841188,-8.62744418198,-8.69729183846,-8.78509861414,-8.89001386545,-9.00962188157,-9.14048296266,-9.27874269648,-9.42070378544,-9.56326891594,-9.70419508572,-9.84214164087,-9.97653479511,-10.107301104,-10.2345370422,-10.3581825294,-10.4777568834,-10.5922004912,-10.6998474217,-10.7985347521,-10.8858344783,-10.959374991,-11.0172034153,-11.0581298986,-11.0819919304,-11.0897820898,-11.0835967073,-11.0663854367,-11.0415108531,-11.0121593529,-10.9806745303,-10.9479058012,-10.912673004,-10.8714391613,-10.8182590497,-10.7450346091,-10.6420657691,-10.4988441813,-10.3050041725,-10.0513247038,-9.7306705026,-9.33876969441,-8.87474702291,-8.34136234277,-7.74493871275,-7.0949979245,-6.40364901149,-5.68479402405,-4.95322410396,-4.22367865363,-3.50993351688,-2.82397350076,-2.17529322736,-1.57036065629,-1.0122709445,-0.500614244406,-0.0315776411507,0.401704194745,0.808545844599,1.19986964249,1.58716542652,1.98132181704,2.39143052507,2.8236902436,3.28054824527,3.76020992009,4.25661643214,4.75994034762,5.25758498586,5.73560497027,6.1804034171,6.58051465249,6.92825733743,7.22104568726,7.46217703105,7.66096929997,7.83219533119,7.99484235012,8.17030366034,8.3801753531,8.64387644666,8.97633256463,9.38596041956,9.87316427801,10.429508826,11.0376694882,11.6721872106,12.3009775559,12.8874718633,13.3932087018,13.7806528862,14.0160008923,14.0717371276,13.9287337077,13.5777328575,13.0201095282,12.267875453,11.3429482437,10.2757649456,9.10336485815,7.86709905392,6.61014269602,5.37499041858,4.20110475142,3.12286418454,2.16792408809,1.35606476569,0.69856110798,0.198071550689,-0.150987079815,-0.361636542018,-0.453181113267,-0.449785032381,-0.378876899504,-0.269478508418,-0.150557599763,-0.0495033781085,0.00918174027437,0.00489357854218,-0.078416988485,-0.251967073533,-0.522230977499,-0.891343365987,-1.3577334093,-1.91688908231,-2.56214833429,-3.28542570991,-4.07780564043,-4.92996198707,-5.83239259114,-6.77548402354,-7.7494435317,-8.74415152093,-9.74899827344,-10.7527723687,-11.7436644604,-12.7094375215,-13.6377926714,-14.5169289282,-15.3362585997,-16.0872028672,-16.7639616565,-17.3641356953,-17.8890825417,-18.3439143308,-18.7370901102,-19.0796126005,-19.3838984637,-19.6624433473,-19.9264403436,-20.1845271241,-20.4418289918,-20.6994317633,-20.9543634241,-21.2000949696,-21.4274996966,-21.6261477869,-21.785768835,-21.8976950802,-21.9561043847,-21.9589121301,-21.9082096721,-21.8102065159,-21.6746960158,-21.5141222866,-21.3423720685,-21.1734442603,-21.0201588429,-20.8930555104,-20.7996023342,-20.7437905023,-20.7261391798,-20.74408275,-20.7926685769,-20.8654623138,-20.9555419261,-21.0564603653,-21.1630676237,-21.2721022988,-21.3824875368,-21.4952937316,-21.6133589355,-21.7405863817,-21.8809656617,-22.0373883489,-22.2103483487,-22.3966301576,-22.5880932262,-22.7706571808,-22.923581239,-23.0191133075,-23.0225622526,-22.8928225109,-22.5833539882,-22.0435911202,-21.2207216671,-20.0617379256,-18.5156225714,-16.5354937855,-14.0805088102,-11.1173228531,-7.62093141997,-3.57479397906,1.02975711495,6.19468775628,11.916743094,18.1888538574,25.0010174156,32.3402078343,40.1889571437,48.5224191983,57.3039610673,66.4795955618,75.9718350064,85.6737704178,95.4443232509,105.105647037,114.443554095,123.211605856,131.139152048,137.943171422,143.343307078,147.079062168,148.92778435,148.721866273,146.363552698,141.835878223,135.208547493,126.637981101,116.361245343,104.684119221,91.964082516,78.5894877907,64.9565593471,51.4460991048,38.4018376346,26.1122300687,14.7971667784,4.60057950122,-4.4106692289,-12.2418499573,-18.9601994395,-24.6808043096,-29.5501175079,-33.7288006724,-37.3755075695,-40.6329813378,-43.6174752788,-46.412077187,-49.0640766997,-51.586114002,-53.9605251663,-56.1460784471,-58.0861853532,-59.7176643785,-60.9792167305,-61.8189179225,-62.2002096345,-62.1060673794,-61.5412007723,-60.5323010148,-59.1264783033,-57.388130387,-55.3945568527,-53.2306878746,-50.9833360055,-48.735406373,-46.5605101915,-44.5184097701,-42.651670555,-40.9838028052,-39.5190464485,-38.2437995395,-37.1295308541,-36.1368702346,-35.2204553833,-34.3340458952,-33.4354026797,-32.4904741171,-31.4765224287,-30.3839515553,-29.216743811,-27.9915578538,-26.7356681036,-25.4840227576,-24.2757565673,-23.1505141104,-22.1449232439,-21.2895139434,-20.6063130943,-20.1072689261,-19.793576766,-19.6558969857,-19.675382337,-19.8253708285,-20.0735567932,-20.3844302825,-20.721774016,-21.0510248654,-21.3413378598,-21.567229683,-21.7097218031,-21.7569480202,-21.7042345357,-21.5536993645,-21.3134485666,-20.9964665967,-20.6193059865,-20.200678906,-19.7600434944,-19.316265867,-18.8864282124,-18.4848457135,-18.1223484516,-17.8058752086,-17.538410207,-17.3192692404,-17.1447094404,-17.0088013937,-16.9044695417,-16.8245827116,-16.7629657647,-16.7152083114,-16.6791678635,-16.6551010281,-16.6454033535,-16.6539900435,-16.6853987076,-16.7437343422,-16.8315995003,-16.9491547855,-17.0934355828,-17.2580140891,-17.4330487363,-17.6057149139,-17.7609691564,-17.8825685012,-17.9542489479,-17.9609604266,-17.8900573112,-17.7323502391,-17.4829350362,-17.1417279107,-16.7136541745,-16.2084622206,-15.6401658141,-15.0261541362,-14.3860460229,-13.7403959997,-13.1093782243,-12.5115755108,-11.9629832174,-11.4763049247,-11.0605743202,-10.7210928195,-10.4596326739,-10.2748271505,-10.1626570079,-10.116947072,-10.1298062603,-10.1919745106,-10.2930746318,-10.4217992268,-10.5660859607,-10.7133435265,-10.8507833682,-10.965889591,-11.0470259151,-11.0841408342,-11.0694980593,-10.9983357877,-10.8693502415,-10.6849085267,-10.4509226068,-10.1763566042,-9.87238762834,-9.55128825425,-9.22513917903,-8.90450768588,-8.59723788384,-8.30749135928,-8.03515353348,-7.77568528897,-7.52045535212,-7.25753986137,-6.9729248115,-6.65199941846,-6.28119024613,-5.84956331384,-5.35021832446,-4.78131669637,-4.14662169589,-3.45548083996,-2.72224200964,-1.96515780301,-1.20488923302,-0.462762506668,0.241043664716,0.889199844577,1.46865329105,1.97165124175,2.39627594347,2.74645919705,3.03149632854,3.26512629245,3.46428140593,3.6476340058,3.8340772911,4.04127486471,4.28440011276,4.57516475622,4.92120754916,5.32588078386,5.7884357523,6.30457107545,6.86727321453,7.46785034921,8.09704264369,8.74608622179,9.40761601559,10.0763133287,10.749234825,11.4257967305,12.1074271342,12.7969366674,13.4976901312,14.2126854286,14.9436585268,15.6903324957,16.4499149682,17.2169229975,17.9833792883,18.739381814,19.4740033861,20.1764336119,20.8372387316,21.4495911511,22.010314724,22.5206058853,22.9863232966,23.4177857753,23.8290742543,24.2368915881,24.6590870106,25.1129932256,25.6137485161,26.1727815557,26.7966228458,27.4861756022,28.2365335182,29.0373776974,29.8739260443,30.7283518936,31.58154045,32.415016114,33.2128536823,33.963382832,34.6605080487,35.3044942799,35.9021107799,36.4660804876,37.0138478048,37.5657498603,38.1427484037,38.763941988,39.4441207803,40.1916405233,41.0068728649,41.8814364651,42.7983318934,43.733002699,44.6552375846,45.5317282711,46.3290178393,47.0165262183,47.5693299687,47.9704038624,48.2120971016,48.2967072617,48.2361169562,48.0505580528,47.7666541407,47.4149554469,47.027217083,46.6336804198,46.2606004634,45.9282236007,45.6493659358,45.4286793823,45.2626272909,45.1401294905,45.0437829219,44.9515223345,44.8385585668,44.6794210209,44.4499355068,44.1289864617,43.6999405594,43.1516434831,42.4789397192,41.6827035951,40.7694062559,39.7502765729,38.6401430267,37.4560669383,36.2158930927,34.9368498675,33.6343258908,32.3209331765,31.0059379094,29.6951014014,28.3909287227,27.0932761233,25.8002265789,24.5091116031,23.217541453,21.9243072378,20.6300369205,19.3375206043,18.0516651933,16.7790893917,15.5274203953,14.3043960027,13.1169034027,11.9700940014,10.866701179,9.80665719821,8.78706186544,7.80250579318,6.84570259623,5.90834400611,4.98206522964,4.0593981062,3.13459724398,2.20424735306,1.26759444801,0.326583990642,-0.614370995007,-1.54883579637,-2.46893726877,-3.36600267051,-4.23118165359,-5.05599860036,-5.83280607555,-6.55513168189,-7.21792588674,-7.81772572265,-8.35274931677,-8.82293149217,-9.22990482912,-9.57692720613,-9.86875818346,-10.1114921636,-10.3123626751,-10.4795346653,-10.6218970803,-10.7488564432,-10.8701172998,-10.9954227782,-11.1342235249,-11.2952497011,-11.4859794451,-11.7120255194,-11.976493887,-12.2793962223,-12.6172156001,-12.9827252352,-13.3651415621,-13.7506563127,-14.1233425276,-14.4663743883,-14.7634494685,-15.0002634243,-15.1658686583,-15.2537543276,-15.2625148665,-15.1960230348,-15.063083411,-14.8766043902,-14.652383002,-14.407640553,-14.1594732802,-13.9233880196,-13.7120778664,-13.5345590402,-13.3957423103,-13.2964571679,-13.2338923836,-13.2023703302,-13.1943404909,-13.2014632981,-13.2156589163,-13.2300137348,-13.2394650098,-13.2412155822,-13.2348611949,-13.2222399758,-13.2070366375,-13.1941934574,-13.1891963965,-13.1973168308,-13.2228952192,-13.2687500418,-13.3357815699,-13.4228154865,-13.5266988363,-13.642625474,-13.7646362405,-13.8862158963,-14.0008979151,-14.1027908397,-14.1869551929,-14.2495853196,-14.2879823165,-14.3003380654,-14.2853818169,-14.2419654142,-14.1686771574,-14.0635745013,-13.9241108321,-13.7473024347,-13.530142063,-13.2702212021
1,-13.3957423103,-13.2964571679,-13.2338923836,-13.2023703302,-13.1943404909,-13.2014632981,-13.2156589163,-13.2300137348,-13.2394650098,-13.2412155822,-13.2348611949,-13.2222399758,-13.2070366375,-13.1941934574,-13.1891963965,-13.1973168308,-13.2228952192,-13.2687500418,-13.3357815699,-13.4228154865,-13.5266988363,-13.642625474,-13.7646362405,-13.8862158963,-14.0008979151,-14.1027908397,-14.1869551929,-14.2495853196,-14.2879823165,-14.3003380654,-14.2853818169,-14.2419654142,-14.1686771574,-14.0635745013,-13.9241108321,-13.7473024347,-13.530142063,-13.2702212021,-12.9664812801,-12.6199817335,-12.2345556693,-11.817225788,-11.3782756618,-10.9309128757,-10.4905161613,-10.0735207645,-9.69605527723,-9.3724889599,-9.11407261803,-8.92785313104,-8.81601114951,-8.7757173045,-8.79953238124,-8.87630184403,-8.99242664546,-9.13334148464,-9.28500674645,-9.4352247526,-9.57462294579,-9.69719992022,-9.80039548796,-9.88471267212,-9.95297760419,-10.0093648624,-10.0583362992,-10.1036404367,-10.1475006652,-10.1900898614,-10.2293522792,-10.2611934652,-10.2800164443,-10.2795396135,-10.2537934917,-10.1981658369,-10.110352821,-9.99108066166,-9.84448732896,-9.67809503016,-9.5023562583,-9.32981250636,-9.17395720763,-9.04793484136,-8.96322987388,-8.92849912641,-8.94868024744,-9.02447173994,-9.15223300398,-9.32430302711,-9.52968981828,-9.75504438974,-9.98580688096,-10.2074009365,-10.4063566975,-10.5712616668,-10.6934690414,-10.767529916,-10.7913529506,-10.7661263275,-10.6960567613,-10.5879860538,-10.4509376863,-10.2956278297,-10.1339527612,-9.97844464577,-9.84167621788,-9.73559648695,-9.6707954989,-9.65572391056,-9.69592662414,-9.79338045371,-9.94604453841,-10.1477313739,-10.3883820925,-10.6547831978,-10.931699509,-11.20332962,-11.4549278949,-11.6743932032,-11.8536091995,-11.9893393992,-12.0835320357,-12.1429680647,-12.1782789612,-12.2024540386,-12.229034077,-12.2702357791,-12.3352621275,-12.429026367,-12.5514579806,-12.6974783314,-12.8576443339,-13.0193730558,-13.1685889963,-13.2915865461,-13.3768771613,-13.4167953366,-13.4086679973,-13.3554043048,-13.2654306131,-13.151970338,-13.0317422108,-12.923214868,-12.8446045984,-12.8118321023,-12.8366611668,-12.9252267825,-13.0771234594,-13.2851688304,-13.5358873365,-13.8106802947,-14.0875703622,-14.343339859,-14.5558328689,-14.7061681039,-14.7806177455,-14.7719470937,-14.6800760187,-14.5120063382,-14.2810468421,-14.0054471426,-13.706612641,-13.4071092583,-13.1286758775,-12.8904461037,-12.7075432502,-12.590159519,-12.5431694227,-12.5662663381,-12.6545570026,-12.7995073762,-12.9901076119,-13.2141145063,-13.4592358394,-13.714140583,-13.9692091163,-14.2169742831,-14.4522428765,-14.6719238883,-14.8746212768,-15.0600723283,-15.2285256738,-15.3801542384,-15.5145876273,-15.6306269694,-15.7261758022,-15.7983873163,-15.8439962139,-15.859777719,-15.8430609573,-15.7922206856,-15.7070791231,-15.5891653949,-15.4418004861,-15.269997947,-15.080192737,-14.8798302823,-14.676862647,-14.4792067846,-14.2942203457,-14.128243777,-13.9862446907,-13.8715837576,-13.785903428,-13.729124688,-13.6995257451,-13.6938720617,-13.7075699257,-13.7348240945,-13.7687907184,-13.8017262305,-13.8251388034,-13.8299509488,-13.8066814593,-13.7456545417,-13.6372450077,-13.4721699346,-13.2418369953,-12.9387556873,-12.5570092811,-12.0927727862,-11.5448466098,-10.9151586923,-10.2091726313,-9.43612946189,-8.60905027873,-7.74443884903,-6.86164884049,-5.98191741663,-5.12711085562,-4.31827168609,-3.5740933772,-2.90947151157,-2.33428489058,-1.85254387528,-1.4620074262,-1.15431932355,-0.915655341876,-0.727815515627,-0.569647511795,-0.418655044988,-0.252632730403,-0.0511759217238,0.203061901657,0.523455733143,0.918889425101,1.39363796971,1.94762270732,2.57698074395,3.27486829151,4.03240379423,4.83964961577,5.68653029147,6.56359164545,7.46252006629,8.37636615195,9.29945115991,10.2269751071,11.1543866478,12.0766105407,12.9872522539,13.8779061856,14.7376820813,15.5530352562,16.3079454065,16.9844433911,17.5634428304,18.0257998763,18.3535039484,18.5308956223,18.545813478,18.390585759,18.0628007206,17.5658080063,16.9089207094,16.1073039704,15.1815515316,14.1569665072,13.0625758304,11.9299183672,10.7916544024,9.68005045514,8.62540053555,7.65445482213,6.78893916416,6.0442610912,5.42850552583,4.94182096233,4.57628040599,4.31626923496,4.13940592681,4.01794630259,3.92056575423,3.81436708084,3.66693427626,3.44825223524,3.13234063595,2.69850187062,2.13214606885,1.42521582874,0.576275316079,-0.409655083015,-1.52144588734,-2.74234043192,-4.05055600224,-5.42001502197,-6.82123089221,-8.22237072902,-9.59049930417,-10.892978982,-12.098966136,-13.1809137929,-14.1159711212,-14.887168015,-15.4842879619,-15.9043606806,-16.1517412202,-16.237777677,-16.180100284,-16.0015876373,-15.7290808893,-15.3919254053,-15.0204240225,-14.6442885701,-14.2911770174,-13.9854010074,-13.7468803862,-13.5904062234,-13.5252519938,-13.555145987,-13.6785896079,-13.8894794633,-14.1779691491,-14.5314918047,-14.9358577885,-15.3763428479,-15.8386893967,-16.3099551007,-16.7791573006,-17.2376779724,-17.6794115639,-18.1006567948,-18.4997727325,-18.8766384028,-19.2319731134,-19.5665905145,-19.8806713589,-20.1731454426,-20.4412698171,-20.680476507,-20.8845384819,-21.0460688646,-21.1573281398,-21.2112716782,-21.2027303592,-21.1295856221,-20.9937812744,-20.8020111215,-20.5659360868,-20.3018175462,-20.0295034527,-19.7707664049,-19.5470623114,-19.3768482518,-19.2726622928,-19.2382202802,-19.2658184713,-19.3343392042,-19.4081335889,-19.4369979221,-19.3573716105,-19.0947710001,-18.567346313,-17.6903209796,-16.3809586061,-14.563617685,-12.1744119288,-9.16500574883,-5.50514561224,-1.18365725791,3.79218392341,9.39879478369,15.5996119396,22.3490909464,29.5967310154,37.2904287001,45.3785125651,53.8099626227,62.5325619842,71.4890374094,80.6115817041,89.8154680658,98.9927167146,108.006914542,116.690287913,124.843973829,132.242133755,138.640137896,143.786564484,147.438269226,149.377348131,149.428499298,147.475127693,143.472552346,137.456866447,129.548347031,119.948777589,108.932590956,96.8323126902,84.0193348899,70.881522955,57.7995011882,45.1236329682,33.1536789084,22.1228755406,12.1877478397,3.42439760642,-4.16863686706,-10.6614987056,-16.1792222066,-20.8845711706,-24.9592794371,-28.585502525,-31.9291336645,-35.1263246715,-38.2741314221,-41.4257318933,-44.5901977875,-47.7363869759,-50.8001992141,-53.6942226405,-56.3186989394,-58.5727425345,-60.3648453951,-61.6218600516,-62.2958545171,-62.368452018,-61.8524884119,-60.7910285382,-59.2539711427,-57.3326341886,-55.1328422061,-52.7671282899,-50.346709133,-47.973887687,-45.7354835057,-43.6977886944,-41.9034053682,-40.370150407,-39.0920299118,-38.0421056876,-37.1769160126,-36.4419877472,-35.7778976295,-35.126313795,-34.4354755061,-33.6646461397,-32.78719333,-31.7920984685,-30.6838601055,-29.4809146173,-28.2128349226,-26.9166691205,-25.6328370016,-24.4010122076,-23.2563859927,-22.2266429778,-21.3298889702,-20.5736648883,-19.9550681638,-19.4618933052,-19.0746066574,-18.7688962551,-18.5184934751,-18.2979532601,-18.0851045356,-17.8629383598,-17.6207804329,-17.3546858429,-17.0670850317,-16.7657893053,-16.4625226656,-16.1711792318,-15.906011526,-15.6799377741,-15.5031217477,-15.3819329509,-15.3183444166,-15.3097757921,-15.3493457948,-15.4264645318,-15.5276752546,-15.6376478212,-15.7402314228,-15.8194890232,-15.8606560331,-15.850986171,-15.7804640428,-15.6423738353,-15.4337156366,-15.1554564676,-14.8125956052,-14.4140181562,-13.9721120269,-13.502134709,-13.0213382069,-12.5478902788,-12.099662395,-11.6929823855,-11.3414662525,-11.0550450202,-10.8392878085,-10.6950933608,-10.6187829531,-10.602583328,-10.6354452302,-10.7041075348,-10.7942937769,-10.8919194107,-10.9841936754,-11.0605167011,-11.1130971089,-11.1372450867,-11.1313287345,-11.0964152737,-11.0356508135,-10.953459582,-10.854662625,-10.7436242447,-10.6235303894,-10.4958871326,-10.3603013423,-10.2145728943,-10.0550920835,-9.87750092603,-9.67754594988,-9.45202531292,-9.19971671488,-8.92216643135,-8.62422550635,-8.31423773137,-8.00381532613,-7.70718000573,-7.44009491482,-7.21846102806,-7.05669464092,-6.96603618076,-6.95296126613,-7.01786971715,-7.15421482565,-7.34820296023,-7.57914410295,-7.82047131292,-8.04137791972,-8.20895388681,-8.29064628709,-8.25683087795,-8.08326687864,-7.75321596663,-7.25903677736,-6.60311341183,-5.79803532072,-4.86601070942,-3.83756027634,-2.74959662716,-1.64304165814,-0.56016542024,0.458156725674,1.37507612973,2.16011839602,2.79110153698,3.25551355294,3.55127336509,3.6868337499,3.68061894223,3.55982344829,3.3586330725,3.11596443279,2.87285441608,2.66966376712,2.54328557431,2.52456522024,2.63613889723,2.890879582,3.29110075422,3.82861010055,4.48563226686,5.23653879415,6.05024376408,6.89305449162,7.73171591009,8.53636151681,9.28308700281,9.9558960894,10.5478293169,11.0611699007,11.5067178229,11.9022235919,12.2701650126,12.6351223275,13.021049336,13.4487440738,13.9337907946,14.4851796181,15.1047210783,15.7872733152,16.5217040093,17.2924298228,18.0813221962,18.8697446979,19.6404939212,20.3794489984,21.0767867187,21.7276808132,22.3324659406,22.8963015008,23.428412529,23.9410126524,24.4480281018,24.9637441423,25.501488361,26.0724513416,26.6847269151,27.3426339218,28.0463609246,28.7919548322,29.571653208,30.3745375033,31.1874606682,31.9961788744,32.7865960076,33.5460145214,34.264280276,34.9347138563,35.554736634,36.1261252434,36.65486098,37.1505780355,37.6256531754,38.0940161749,38.5697917272,39.0659058855,39.5927993131,40.1573822575,40.7623410062,41.4058647487,42.0818108236,42.7802730859,43.4884709468,44.1918425652,44.8752091693,45.5238798088,46.1245851256,46.6661607338,47.1399398367,47.5398547776,47.8622828204,48.1056984066,48.2702099698,48.3570635588,48.3681890284,48.3058494067,48.1724326392,47.9703997095,47.7023765811,47.3713521514,46.9809235483,46.5355171205,46.0405116007,45.5022011557,44.9275600775,44.32380493,43.6977890086,43.0553015069,42.400372733,41.7347007893,41.0573100899,40.3645267757,39.6503131467,38.9069492346,38.1259940595,37.2994118849,36.4207178811,35.4859877213,34.4945880964,33.4495183609,32.3573030812,31.2274341451,30.0714206524,28.9015565268,27.7295529956,26.5652018413,25.415234336,24.2825207301,23.1657182791,22.0594256232,20.9548430007,19.8408778064,18.705580705,17.5377558128,16.3285647975,15.0729421602,13.7706578791,12.426901839,11.0523175013,9.66247348134,8.27682327895,6.91725765342,5.6063949886,4.36577890767,3.21415805108,2.16601049667,1.23044633176,0.410579912973,-0.296586051284,-0.899772753973,-1.41258734677,-1.85232453545,-2.23852277698,-2.59140455965,-2.93033478009,-3.27242645006,-3.63140810415,-4.0168412403,-4.43373968356,-4.88259975632,-5.35980666349,-5.85834515725,-6.36871684663,-6.87995576455,-7.38063840062,-7.85980184271,-8.30770933651,-8.71643104552,-9.08023404417,-9.39579585036,-9.66226811459,-9.88122118295,-10.0564971521,-10.1939905074,-10.301363894,-10.3876952327,-10.4630451253,-10.5379337326,-10.6227256324,-10.7269384944,-10.8585135073,-11.0231078999,-11.2234875249,-11.4591051903,-11.7259441908,-12.0166849373,-12.321217564,-12.6274795629,-12.9225512711,-13.1939007939,-13.4306409422,-13.6246496187,-13.7714142658,-13.8704891588,-13.9254971633,-13.9436595095,-13.9348926195,-13.9105648001,-13.8820521774,-13.8592668217,-13.8493449443,-13.8556748344,-13.877410569,-13.9095598804,-13.9436589069,-13.968963371,-13.9740081389,-13.9483281966,-13.8841041346,-13.7774999741,-13.6295006247,-13.4461247899,-13.2379762759,-13.019188804,-12.8059019095,-12.6144653316,-12.4595980777,-12.352724093,-12.300673131,-12.3048808648,-12.3611561201,-12.4600151302,-12.5875214201,-12.7265217089,-12.8581370585,-12.9633560984,-13.024583042,-13.0270145522,-12.9597514291,-12.8165873939,-12.5964515693,-12.3035084372,-11.9469364081,-11.5404143017,-11.1013474824
