4,-3.36638366173,-3.93180987376,-4.47493945876,-4.98575170647,-5.45828598528,-5.89209105328,-6.29279841133,-6.671674052,-7.04417277641,-7.42768758276,-7.83882249803,-8.29059787001,-8.79001135651,-9.33632562741,-9.92034505232,-10.524796958,-11.125772909,-11.6950376994,-12.2029004638,-12.6212783656,-12.9265745949,-13.1020356969,-13.1393375955,-13.039258985,-12.8114173314,-12.4731504968,-12.04771396,-11.5620226891,-11.0441957536,-10.5211625682,-10.016566388,-9.54915737831,-9.13180700349,-8.77120032361,-8.46817872514,-8.21862289172,-8.01469794274,-7.84624303621,-7.70208561589,-7.57109762962,-7.4428802713,-7.3080505502,-7.15818936367,-6.98558004336,-6.78290629005,-6.54308250346,-6.25935715602,-5.92576633376,-5.53793070758,-5.09409996126,-4.59627057784,-4.0511511519,-3.47073587841,-2.87227804818,-2.2775306128,-1.71123108237,-1.19893582927,-0.764431497451,-0.427045690052,-0.199227658773,-0.0847628327205,-0.0779220185582,-0.163734544454,-0.319429219543,-0.516927670866,-0.726123859103,-0.918563197789,-1.07106256059,-1.16879955488,-1.20744852643,-1.19404661743,-1.14642372172,-1.09120767166,-1.06059877135,-1.08827249287,-1.20489379427,-1.43379382475,-1.78735970506,-2.26461873728,-2.85036598383,-3.51600244718,-4.22204043944,-4.92201814991,-5.56737440812,-6.11269492272,-6.52067692246,-6.766184981,-6.83888754111,-6.74415575281,-6.50214387682,-6.14521519231,-5.71409018944,-5.25324378097,-4.80614763675,-4.41093944556,-4.09701202835,-3.88286901457,-3.77541222377,-3.77063340788,-3.8555046096,-4.01072025684,-4.21385842885,-4.44250839352,-4.67695610843,-4.90211851508,-5.1085531104,-5.29251890084,-5.45520472872,-5.60134990397,-5.73754504034,-5.87051188869,-6.0056235134,-6.14585245204,-6.29124170582,-6.43890011113,-6.58344645084,-6.71777680297,-6.83401000455,-6.92447119167,-6.98259316625,-7.00364109471,-6.98519363101,-6.92734289248,-6.83260810994,-6.70559342488,-6.55245661513,-6.38028630732,-6.19650168007,-6.00838274192,-5.82280800577,-5.6462244187,-5.48481334156,-5.34476124745,-5.23250843266,-5.1548423223,-5.11872653796,-5.13080946408,-5.1966280732,-5.31960109095,-5.49997359166,-5.73391582444,-6.01298019043,-6.3240789556,-6.65006924805,-6.9709367232,-7.26547361208,-7.51326777278,-7.69676889896,-7.8031816466,-7.8259523882,-7.7656614126,-7.63019800488,-7.43417362587,-7.19761065621,-6.94402414989,-6.69808521217,-6.48310953155,-6.31864509568,-6.2184324282,-6.18897626029,-6.22890268046,-6.32918865677,-6.47425186259,-6.64378864013,-6.81515717672,-6.96603195684,-7.07701389966,-7.13387562958,-7.12915691153,-7.06290077907,-6.94242975065,-6.78119025991,-6.59682272909,-6.40872340047,-6.23543403495,-6.09221604867,-5.98913498227,-5.92990644858,-5.91164881938,-5.92556598379,-5.95846018404,-5.99486402231,-6.0194957054,-6.01969449997,-5.98749201682,-5.92102063946,-5.8250479085,-5.71054445405,-5.59332850856,-5.49196426966,-5.42520485814,-5.40934486914,-5.45586865989,-5.56974243852,-5.74860477635,-5.9829756566,-6.25745098258,-6.5527030028,-6.84799012811,-7.12380855324,-7.36430189365,-7.55908506428,-7.70422855593,-7.80227563877,-7.86130915511,-7.89322551666,-7.91149092323,-7.92873124431,-7.95453049159,-7.99377943702,-8.04583120918,-8.10459863062,-8.15958804035,-8.1977271561,-8.20572861209,-8.17264978742,-8.09227150212,-7.96492649297,-7.79846339546,-7.60813058668,-7.41530001356,-7.24511107029,-7.12327827855,-7.07244820091,-7.10858520193,-7.23789391107,-7.45474156514,-7.74093098726,-8.06650996961,-8.39210727674,-8.67258505517,-8.86161858441,-8.91668129525,-8.80384465095,-8.50180934719,-8.00466668841,-7.32303676017,-6.48342375712,-5.52584288737,-4.49997958638,-3.46031406922,-2.46076209545,-1.54943411823,-0.764095882664,-0.128827144577,0.347768622535,0.672634928134,0.866646925544,0.961538848728,0.9957680756,1.00982559119,1.04155693145,1.12204472141,1.27252460317,1.50266879147,1.81039224272,2.18313973699,2.60042566685,3.03724703123,3.46789248639,3.86963696294,4.2258449686,4.52810045169,4.77712291779,4.98239792249,5.160621585,5.33321037476,5.52323999159,5.7522381247,6.03726023237,6.38862696483,6.80860381185,7.29117076053,7.82288010972,8.38465515369,8.95426180082,9.50910588596,10.0289810042,10.4984171833,10.9083534238,11.2569639974,11.5495919386,11.7978641776,12.0181629565,12.2296931071,12.4524067729,12.7050270291,13.0033584734,13.3590005219,13.7785036704,14.262943947,14.8078449773,15.4033539646,16.0345771926,16.6820003418,17.3219550779,17.9271385652,18.4672353894,18.9097194146,19.2209169368,19.3673885545,19.3176384996,19.0440958795,18.5252452058,17.7477267556,16.7081909483,15.4146814144,13.8873416462,12.1582895518,10.2705788367,8.27625811048,6.23363706012,4.20396103261,2.24776759315,0.421239495701,-1.22712907988,-2.65927252529,-3.84948785189,-4.78543892958,-5.4682017376,-5.91141040591,-6.13963836691,-6.18620369606,-6.0906194131,-5.89591611295,-5.64604572136,-5.38353474383,-5.14750018497,-4.97208093677,-4.88528188055,-4.90818578451,-5.05446515393,-5.33012517787,-5.73342918189,-6.25499483197,-6.87809287243,-7.57921623831,-8.32900179027,-9.0935711422,-9.83631120466,-10.5200472932,-11.109485829,-11.5737365713,-11.8886817778,-12.0389521191,-12.0192985705,-11.8352093571,-11.5026988867,-11.0472773256,-10.5021832475,-9.9060204298,-9.29998096617,-8.72486161999,-8.21809194025,-7.81099413041,-7.52648658979,-7.37742259147,-7.36571799718,-7.48236423915,-7.70834691589,-8.01640360658,-8.37346775984,-8.74357039932,-9.09091827823,-9.38284358776,-9.59232975628,-9.6998587445,-9.69439215666,-9.57338423832,-9.34182151738,-9.0103824785,-8.59290069817,-8.10338519592,-7.55289314137,-6.94655780465,-6.28105024106,-5.54270425256,-4.70647204981,-3.73581358241,-2.58356211124,-1.19375396015,0.495638637957,2.54917603201,5.02976338849,7.99398330749,11.4871580429,15.5383821791,20.1557954537,25.3223876794,30.9926391621,37.0902969801,43.507566803,50.1059582533,56.7189557175,63.1565938298,69.2118983185,74.6690133161,79.3126848771,82.9386210899,85.3641191414,86.4382577398,86.0509163431,84.1399122355,80.6956460065,75.7628099368,69.4389290213,61.8697519261,53.2417661449,43.7723533654,33.6983038624,23.2635518032,12.7070601917,2.25176472276,-7.90462080562,-17.5963186658,-26.6933430922,-35.1023913293,-42.7649352404,-49.6529234348,-55.7626983077,-61.1078616572,-65.7118791074,-69.6011957465,-72.7995459605,-75.3239869254,-77.1829811695,-78.3766193439,-78.8988351696,-78.741247155,-77.8980895809,-76.3715852503,-74.1770731485,-71.347236592,-67.9348772522,-64.0138388165,-59.6778872553,-55.0375829515,-50.2154076014,-45.3396064806,-40.5373464914,-35.9278524623,-31.6161619169,-27.6880405154,-24.2064474652,-21.2097594175,-18.7117787006,-16.7033869126,-15.1555703045,-14.0234464577,-13.2508672651,-12.7751634792,-12.5316299095,-12.4574222947,-12.4946373266,-12.5924631764,-12.708403784,-12.808680381,-12.867984779,-12.8687926058,-12.8004399744,-12.6581307477,-12.4419860977,-12.1561881772,-11.8082185939,-11.4081588285,-10.968006952,-10.5009709194,-10.0207177574,-9.54058331134,-9.07277264998,-8.62760216695,-8.2128480646,-7.83327084401,-7.49038109975,-7.18249846363,-6.90513378245,-6.6516958202,-6.41448929744,-6.18593254524,-5.95988343288,-5.73292703383,-5.50545541434,-5.28236645548,-5.07322936167,-4.89181023596,-4.75491927517,-4.68062622151,-4.68598378787,-4.78448751085,-4.98357030234,-5.28246653712,-5.67077297383,-6.12797765101,-6.62412645906,-7.12166144547,-7.57831270731,-7.95077900379,-8.19881396256,-8.28926429766,-8.19959514195,-7.92048648133,-7.45718540686,-6.82943699508,-6.06997514092,-5.22171629397,-4.33394646622,-3.45790796358,-2.64226185398,-1.9289150181,-1.34965402514,-0.923927418028,-0.657975817828,-0.545343710861,-0.56863959974,-0.702264885915,-0.915726314226,-1.17709624476,-1.45619541962,-1.72714044355,-1.97000965031,-2.1715170323,-2.32472392288,-2.42794412961,-2.48309611314,-2.49381527928,-2.46365379262,-2.39466218141,-2.28657023219,-2.13667564573,-1.94042541652,-1.69255747252,-1.38857801047,-1.02629775024,-0.607145326862,-0.137016932158,0.373501053554,0.909599588472,1.45336128638,1.98538061606,2.48667347825,2.94061517236,3.33463700916,3.66143923376,3.91953876294,4.11305889309,4.25077528804,4.34454460126,4.40734209328,4.45120496332,4.48540411434,4.51514054144,4.54098456617,4.55915779499,4.56261831722,4.54277360445,4.49153780437,4.40339115605,4.27710014496,4.11681640248,3.93237696391,3.73875683915,3.55475274594,3.40108318842,3.29816102386,3.26382515086,3.31131019518,3.44769385216,3.67299946573,3.98005472661,4.35512297237,4.7792379781,5.23009454275,5.68428600765,6.11964571022,6.51744680611,6.8642415557,7.15316957555,7.3846252906,7.56623953175,7.71219314304,7.84193780122,7.97844754816,8.14616018487,8.36878804853,8.66718222758,9.05742429223,9.54929745367,10.1452573646,10.8399842486,11.620555226,12.4672306109,13.354802037,14.2544051245,15.1356578588,15.9689525008,16.7277092128,17.39039867,17.9421614954,18.3758932135,18.69271853,18.9018386673,19.0197904769,19.0691989301,19.0771322652,19.0731828102,19.087400677,19.1482072379,19.2804136998,19.5034670003,19.8300374454,20.2650459311,20.8052011876,21.4390812704,22.1477539228,22.9058931612,23.6833178454,24.4468535077,25.1624026561,25.7971020658,26.3214467673,26.7112655945,26.949438394,27.02724923,26.945275157,26.7137203213,26.3521245082,25.8884068026,25.3572494324,24.7978818201,24.2513852875,23.75769779,23.3525478587,23.0645801484,22.9129449722,22.9056057135,23.0385682235,23.2961563739,23.6523543089,24.0731208068,24.519470325,24.951024399,25.3296780236,25.6230056439,25.8070536377,25.8682305278,25.8041078627,25.6230725924,25.3429083535,24.9885077855,24.5890122158,24.174726407,23.7741600215,23.4115066186,23.1047936668,22.8648362434,22.6950188912,22.5918310634,22.5460053324,22.5440619762,22.5700497493,22.6072855926,22.6399272236,22.6542532522,22.6395693127,22.588702341,22.4980870475,22.3674875794,22.1994313776,21.9984585237,21.7703049112,21.5211378454,21.2569460772,20.9831536543,20.7044829145,20.4250440465,20.1485857044,19.878811083,19.6196521718,19.3754039571,19.1506486896,18.9499427185,18.7772866534,18.635444736,18.5252136236,18.4447592847,18.3891411563,18.3501253205,18.3163556022,18.2739076878,18.2072025575,18.1002078294,17.9378142152,17.7072434658,17.3993281095,17.0095061021,16.5383979648,15.9918792494,15.3806220219,14.719146895,14.0244920646,13.3146578484,12.6070152568,11.9168685993,11.2563340301,10.6336442815,10.0529256355,9.51442825231,9.01513475793,8.54963095956,8.11110048791,7.69230325305,7.28641453675,6.8876341558,6.49151877717,6.09503885275,5.69640698032,5.29475887586,4.88978551606,4.4814126112,4.06960243614,3.65431792029,3.23564728748,2.81404787953,2.39063760643,1.96744755964,1.54755357419,1.13502868007,0.734698347124,0.351727126088,-0.00889293447448,-0.342855539963,-0.646954451858,-0.919316711465,-1.1594082926,-1.36780973127,-1.54580290752,-1.69484640439,-1.81604075367,-1.90969302873,-1.97508120407,-2.01049337541,-2.01357825346,-1.98199551867,-1.91430305406,-1.81096978273,-1.67536612541,-1.51456658555,-1.33980501315,-1.1664524312,-1.01343590052,-0.902078952482,-0.854413482051,-0.891083330913,-1.02902409758,-1.27915419343,-1.64434104544,-2.11790747728,-2.68291364955,-3.31238991628,-3.9706086533,-4.61537411041,-5.20118804186,-5.68302984527,-6.02039153498,-6.18114771623,-6.14483072991,-5.90492515734,-5.46989033192,-4.86275485098,-4.11928845698,-3.28492433568,-2.4107560331,-1.54904548646,-0.748734762872,-0.0514454940379,0.511621219532,0.921593429172,1.17250728522,1.27057891425,1.23233891164,1.08191607322,0.847833503711,0.559710695386,0.245247866575,-0.0721928861054,-0.375191902378,-0.652961481217,-0.901141400786,-1.12082937179,-1.31705725537,-1.49697087528,-1.66798022237,-1.83612036159,-2.00480892721,-2.17411445979,-2.34057311898,-2.49752153231,-2.63586055428,-2.74513326104,-2.81478859703
4,18.2072025575,18.1002078294,17.9378142152,17.7072434658,17.3993281095,17.0095061021,16.5383979648,15.9918792494,15.3806220219,14.719146895,14.0244920646,13.3146578484,12.6070152568,11.9168685993,11.2563340301,10.6336442815,10.0529256355,9.51442825231,9.01513475793,8.54963095956,8.11110048791,7.69230325305,7.28641453675,6.8876341558,6.49151877717,6.09503885275,5.69640698032,5.29475887586,4.88978551606,4.4814126112,4.06960243614,3.65431792029,3.23564728748,2.81404787953,2.39063760643,1.96744755964,1.54755357419,1.13502868007,0.734698347124,0.351727126088,-0.00889293447448,-0.342855539963,-0.646954451858,-0.919316711465,-1.1594082926,-1.36780973127,-1.54580290752,-1.69484640439,-1.81604075367,-1.90969302873,-1.97508120407,-2.01049337541,-2.01357825346,-1.98199551867,-1.91430305406,-1.81096978273,-1.67536612541,-1.51456658555,-1.33980501315,-1.1664524312,-1.01343590052,-0.902078952482,-0.854413482051,-0.891083330913,-1.02902409758,-1.27915419343,-1.64434104544,-2.11790747728,-2.68291364955,-3.31238991628,-3.9706086533,-4.61537411041,-5.20118804186,-5.68302984527,-6.02039153498,-6.18114771623,-6.14483072991,-5.90492515734,-5.46989033192,-4.86275485098,-4.11928845698,-3.28492433568,-2.4107560331,-1.54904548646,-0.748734762872,-0.0514454940379,0.511621219532,0.921593429172,1.17250728522,1.27057891425,1.23233891164,1.08191607322,0.847833503711,0.559710695386,0.245247866575,-0.0721928861054,-0.375191902378,-0.652961481217,-0.901141400786,-1.12082937179,-1.31705725537,-1.49697087528,-1.66798022237,-1.83612036159,-2.00480892721,-2.17411445979,-2.34057311898,-2.49752153231,-2.63586055428,-2.74513326104,-2.81478859703,-2.83550279553,-2.80043690925,-2.70631758568,-2.55424153013,-2.35012546827,-2.10475395164,-1.83341408583,-1.55514372223,-1.29165240817,-1.06599848043,-0.901118909935,-0.818310763813,-0.8357568965,-0.967178210093,-1.22068526749,-1.59789588106,-2.0933816994,-2.69450174395,-3.38166914854,-4.12907532738,-4.90586280982,-5.67769677427,-6.40864170319,-7.06321180127,-7.60844083817,-8.01581548198,-8.26293716578,-8.3348160351,-8.22474699494,-7.93476104266,-7.47567497427,-6.86677356705,-6.13515150012,-5.31472525947,-4.4449094865,-3.56894833525,-2.73190691254,-1.97836206333,-1.3498821631,-0.88244432097,-0.603991903757,-0.532369513142,-0.673871951438,-1.02260179968,-1.56075150699,-2.25982373659,-3.0826959424,-3.98633962272,-4.92493560313,-5.8530921014,-6.72887376861,-7.51638378848,-8.18770052625,-8.72404616092,-9.11614709013,-9.36382475036,-9.47492282488,-9.4637277012,-9.34907159776,-9.15232175411,-8.89545428585,-8.59938750639,-8.28270804461,-7.96086849589,-7.64587511933,-7.34642644342,-7.0684152891,-6.81567225744,-6.59081126535,-6.39603916912,-6.2338116963,-6.10725313642,-6.02030039479,-5.9775746904,-5.98401972244,-6.04437031067,-6.16252997403,-6.3409403952,-6.58002090913,-6.87774289456,-7.22938398981,-7.62748307843,-8.06199201881,-8.52059719224,-8.98916646827,-9.45226888622,-9.89371853798,-10.2971116575,-10.6463529948,-10.9261956113,-11.1228368721,-11.2246146275,-11.2228283811,-11.1126728806,-10.8942227534,-10.5733567819,-10.1624713034,-9.68081509987,-9.15428993724,-8.6146028847,-8.09772473743,-7.64169534511,-7.28391046353,-7.05811248398,-6.99137422164,-7.10139708888,-7.39443352417,-7.86408762618,-8.49115527423,-9.24454964904,-10.0832369882,-10.9589975896,-11.8197431949,-12.6130742979,-13.2897540071,-13.8068067,-14.130012112,-14.2356471524,-14.111415502,-13.7565863535,-13.1814284361,-12.4060675,-11.458913305,-10.3747995706,-9.19296492714,-7.9549831318,-6.70273244084,-5.47647893623,-4.31313619312,-3.24475301153,-2.29727146675,-1.48958883539,-0.832948532129,-0.330676691706,0.0217276418182,0.236149700212,0.331074353032,0.330482401788,0.262465956946,0.157620181152,0.0472900793072,-0.0382285452108,-0.071419718462,-0.0290899489229,0.106388688189,0.34622425486,0.694793956746,1.149689352,1.70218981323,2.33810356917,3.0388950424,3.78300791029,4.54729126695,5.30843735269,6.04434193604,6.73530383396,7.36499113367,7.92112116194,8.3958296372,8.78573850468,9.09176501841,9.31873869675,9.47490125926,9.5713548348,9.62149841926,9.64045999127,9.64450293357,9.6503702554,9.67453380517,9.73233776538,9.83706074494,9.99895964855,10.2243905399,10.5151171588,10.8679103158,11.2745103442,11.7219756795,12.193384238,12.6688038783,13.1264160877,13.5436705644,13.8983678227,14.1696054249,14.338569095,14.3891893914,14.3087064877,14.0881838647,13.7229875969,13.2132099773,12.5639778109,11.7855603295,10.8931883176,9.90651699148,8.84870665933,7.74514910675,6.62192370916,5.50411522227,4.41415682076,3.37037188585,2.38587393708,1.46794699792,0.617973554886,-0.16808723818,-0.898731734533,-1.58556700899,-2.24173567668,-2.88027050748,-3.51253512589,-4.14689138814,-4.78771189207,-5.43482975507,-6.08348628398,-6.72479839728,-7.34672112312,-7.93542860242,-8.47698510949,-8.95913304312,-9.37299577011,-9.71448682982,-9.985237694,-10.1929040082,-10.3507802661,-10.476736584,-10.5915777188,-10.7170019541,-10.8733946669,-11.0777190358,-11.3417592541,-11.6709302078,-12.0637981604,-12.5123699514,-13.0031150211,-13.5185955304,-14.0395043165,-14.5468580218,-15.0240724867,-15.4586645199,-15.8433766568,-16.1766007927,-16.4620697482,-16.7078790867,-16.9249822302,-17.1253595442,-17.3200894343,-17.5175448301,-17.721906574,-17.9321363263,-18.1414972274,-18.3376592252,-18.5033804288,-18.6177137946,-18.657646386,-18.6000361051,-18.4236730459,-18.1112677673,-17.6511645647,-17.0385978077,-16.2763513492,-15.3747374754,-14.3508727097,-13.2272835162,-12.0299198495,-10.7856881415,-9.51964161358,-8.25199002261,-6.99511665012,-5.75081766144,-4.50800453209,-3.24112780067,-1.90958186337,-0.458327266483,1.18008820387,3.08201871352,5.32775167169,7.99525815155,11.1529916459,14.8522053543,19.1193703039,23.9493449397,29.2999605644,35.0886398034,41.1915555159,47.44566939,53.653773426,59.592410351,65.0222922495,69.7005950407,73.3943057953,75.893664379,77.0246889204,76.6598151202,74.725810623,71.2083360481,66.1527949835,59.6614218514,51.886870499,43.0228575931,33.2926557479,22.9363996837,12.1982489396,1.31443355383,-9.49690692374,-20.0433872733,-30.1631158587,-39.7263963045,-48.6345934343,-56.8166438863,-64.2239039556,-70.8241518852,-76.5955885096,-81.5216100226,-85.5869727593,-88.7757552344,-91.0712758811,-92.4578753482,-92.9242462827,-92.4678126536,-91.0995402775,-88.8485093319,-85.7656010299,-81.9257410009,-77.4282921327,-72.3953846146,-66.9681901403,-61.3013662086,-55.556089893,-49.8922463215,-44.460420559,-39.3943568171,-34.8044984349,-30.7731143633,-27.3513655111,-24.5584830451,-22.3830391827,-20.7861096597,-19.7059759126,-19.0639100152,-18.7705347571,-18.7322540784,-18.8572972605,-19.0610018849,-19.2700623756,-19.4255795886,-19.4848500288,-19.4219218082,-19.2270149347,-18.9049579651,-18.4728355619,-17.9570738461,-17.3902106566,-16.8076019265,-16.2443000896,-15.7323047687,-15.2983323039,-14.9621852437,-14.7357358662,-14.6224811251,-14.6175906077,-14.7083592813,-14.8749904938,-15.0916624459,-15.3278601223,-15.5499719904,-15.7231481407,-15.8133912326,-15.7898072076,-15.6268884459,-15.3066511007,-14.820415288,-14.1700139043,-13.3682493887,-12.4384858083,-11.4133563442,-10.3326683683,-9.2406829706,-8.18301806181,-7.20346354816,-6.34099884156,-5.62726861228,-5.0847095365,-4.72544041932,-4.5509436657,-4.55248967552,-4.71219634558,-5.00457839755,-5.39842628499,-5.85885861973,-6.34940937163,-6.83403467309,-7.27894818306,-7.65421552496,-7.93505708112,-8.10282563534,-8.14564125606,-8.05867860801,-7.84410977532,-7.51070994145,-7.07313829988,-6.55091676581,-5.96714620835,-5.34702312722,-4.71624624066,-4.09942768279,-3.51864034883,-2.99223314049,-2.53402391897,-2.15293684662,-1.85309409717,-1.63431237638,-1.49290260072,-1.42263478228,-1.41571583909,-1.46363906541,-1.55779961031,-1.68982457376,-1.8516285399,-2.03526253551,-2.23266467421,-2.43543618635,-2.63475453378,-2.82149882277,-2.98660960126,-3.12164644871,-3.21945445461,-3.27481504322,-3.28494469503,-3.24972002917,-3.17154833514,-3.05486335672,-2.90529655502,-2.72864000479,-2.5297637458,-2.31166727999,-2.07482914081,-1.81697505711,-1.53332413874,-1.21730476751,-0.861666775355,-0.459860770293,-0.00751406956853,0.496190446821,1.04742816561,1.63711380831,2.25087994557,2.8697171959,3.4712579895,4.03159714868,4.52746174085,4.93848427929,5.24930829802,5.45126834925,5.54343577871,5.53289981756,5.43424888473,5.26831523222,5.06033269979,4.83772054012,4.62773929319,4.45526664322,4.34091555086,4.29966890283,4.34013984593,4.46449112761,4.66896876816,4.94493611783,5.28024451369,5.6607536326,6.07182007215,6.49960305729,6.93208375442,7.35974955764,7.77594673278,8.17694545555,8.56178518802,8.931974009,9.2911052333,9.64443368671,9.99842936378,10.3603052165,10.7375045825,11.1371355762,11.5653542621,12.0267216663,12.5235851974,13.0555556154,13.6191601847,14.2077477434,14.8117021642,15.418989973,16.0160301199,16.5888339114,17.1243255514,17.6117228204,18.0438369965,18.4181447773,18.7374955504,19.0103457336,19.2504558262,19.4760400642,19.7084162144,19.9702570587,20.2835897577,20.6677205244,21.137277309,21.7005607846,22.3583728799,23.1034530932,23.9205991719,24.7874865417,25.6761374,26.554931817,27.3910031822,28.1528210241,28.8127381431,29.3492699703,29.748885797,30.0071252855,30.1289077152,30.1279722153,30.0254705301,29.8478236442,29.6240404399,29.3827679759,29.1493861977,28.943465431,28.7768693544,28.6527130384,28.5652854876,28.5009338768,28.439798668,28.3581995286,28.2314111563,28.0365392901,27.7552087489,27.3758032791,26.8950468983,26.3187837331,25.6618924292,24.9473546667,24.2045764018,23.4671267348,22.7701066364,22.1473850028,21.6289419509,21.2385397432,20.9919026713,20.8955330333,20.9462275059,21.1312944779,21.4294157401,21.8120510303,22.2452542691,22.6917560672,23.1131662854,23.4721600179,23.7345268019,23.870982618,23.8586644704,23.6822464983,23.3346344784,22.817212714,22.1396342707,21.319163116,20.3795962238,19.3498163579,18.2620519993,17.1499473625,16.0465682124,14.9824832024,13.9840618187,13.0721169563,12.2609931118,11.5581623681,10.9643432847,10.4741071803,10.0768881062,9.75827412773,9.50143498286,9.28853885757,9.10202903593,8.92566581538,8.74528342779,8.54925672621,8.32870868995,8.07751075638,7.79213256557,7.47139029825,7.11613016816,6.72887174324,6.31342837161,5.87452047638,5.41740081101,4.94751548984,4.47022600774,3.99061201212,3.51336230094,3.04274604202,2.5826425202,2.13659948689,1.7078885417,1.29952981788,0.914265520928,0.554471063123,0.222003190208,-0.0820036742597,-0.357369933633,-0.605099890739,-0.82757003671,-1.02863909959,-1.2136470515,-1.38927931743,-1.56328520187,-1.7440544408,-1.94007045576,-2.15927153571,-2.40836147945,-2.69212004656,-3.01277185703,-3.36947999383,-3.75803520131,-4.17080891044,-4.5970238385,-5.02336740382,-5.43493214387,-5.8164186312,-6.15348759795,-6.43410864306,-6.64973322219,-6.79612764934,-6.87373982123,-6.88753586419,-6.84631837996,-6.76161289007,-6.64627138393,-6.51298233822,-6.37288900544,-6.23449968276,-6.10302757176,-5.9802316018,-5.86475479406,-5.75288572905,-5.63961205303,-5.5198002264,-5.3893266142,-5.24600109577,-5.09016123063,-4.92486565183,-4.75567206164,-4.59004083126,-4.43645343455,-4.30337036582,-4.19817174318,-4.12622330926,-4.09019112087,-4.08969262682,-4.1213255807,-4.17906677936,-4.25498749701,-4.34019729093,-4.42590535384,-4.50447936111,-4.57038535194,-4.62090763871,-4.65657353781,-4.68124143867,-4.70184849352,-4.72785036274,-4.77041372479,-4.84143858592,-4.95249226947,-5.11373483383,-5.33291185366,-5.61448768706,-5.95898939475,-6.36262456607,-6.81722147974,-7.31051565412,-7.82677482128,-8.34771942557,-8.85366353347,-9.32477652245,-9.7423530165,-10.0899798965,-10.354504996,-10.526738883,-10.6018529637,-10.5794682824,-10.4634562635,-10.2614936273
4,1.29952981788,0.914265520928,0.554471063123,0.222003190208,-0.0820036742597,-0.357369933633,-0.605099890739,-0.82757003671,-1.02863909959,-1.2136470515,-1.38927931743,-1.56328520187,-1.7440544408,-1.94007045576,-2.15927153571,-2.40836147945,-2.69212004656,-3.01277185703,-3.36947999383,-3.75803520131,-4.17080891044,-4.5970238385,-5.02336740382,-5.43493214387,-5.8164186312,-6.15348759795,-6.43410864306,-6.64973322219,-6.79612764934,-6.87373982123,-6.88753586419,-6.84631837996,-6.76161289007,-6.64627138393,-6.51298233822,-6.37288900544,-6.23449968276,-6.10302757176,-5.9802316018,-5.86475479406,-5.75288572905,-5.63961205303,-5.5198002264,-5.3893266142,-5.24600109577,-5.09016123063,-4.92486565183,-4.75567206164,-4.59004083126,-4.43645343455,-4.30337036582,-4.19817174318,-4.12622330926,-4.09019112087,-4.08969262682,-4.1213255807,-4.17906677936,-4.25498749701,-4.34019729093,-4.42590535384,-4.50447936111,-4.57038535194,-4.62090763871,-4.65657353781,-4.68124143867,-4.70184849352,-4.72785036274,-4.77041372479,-4.84143858592,-4.95249226947,-5.11373483383,-5.33291185366,-5.61448768706,-5.95898939475,-6.36262456607,-6.81722147974,-7.31051565412,-7.82677482128,-8.34771942557,-8.85366353347,-9.32477652245,-9.7423530165,-10.0899798965,-10.354504996,-10.526738883,-10.6018529637,-10.5794682824,-10.4634562635,-10.2614936273,-9.98442790507,-9.64551646324,-9.25960015947,-8.84226328956,-8.40901698302,-7.97452849083,-7.55190997243,-7.1520821974,-6.78324105057,-6.45047152337,-6.15556489085,-5.89709157951,-5.67076199538,-5.47007326096,-5.28719806496,-5.11403092414,-4.94327543153,-4.76944049083,-4.5896182382,-4.40394149659,-4.21566016921,-4.03082666443,-3.85763150942,-3.70547356786,-3.58387867509,-3.50139296689,-3.46457278617,-3.47717463358,-3.53962078082,-3.64878386712,-3.79810122864,-3.97799983485,-4.17658739223,-4.38054532901,-4.57614504436,-4.75029958446,-4.89155864786,-4.99095630517,-5.04262986702,-5.04414700748,-4.99650732898,-4.90382215179,-4.772717481,-4.61154274375,-4.42949458734,-4.23577495027,-4.03889282943,-3.84619040562,-3.66363122891,-3.49583932717,-3.34633353452,-3.2178703664,-3.11279725296,-3.03332667165,-2.98166664809,-2.95997735512,-2.97016002306,-3.01351735716,-3.09035009476,-3.19956958218,-3.33840982084,-3.50231367629,-3.68504679836,-3.87906026496,-4.0760825041,-4.26787956821,-4.44708937424,-4.60801776266,-4.74728533542,-4.8642323749,-4.96102044756,-5.04240865424,-5.11522486152,-5.18759205935,-5.26800107948,-5.36433760524,-5.48297056298,-5.6279917053,-5.80066777107,-5.99913475096,-6.21833631336,-6.45019126907,-6.68397050577,-6.90687001592,-7.10477684299,-7.26322947864,-7.36856458484,-7.40921377847,-7.37707082356,-7.26880110004,-7.08692580822,-6.84049691182,-6.54519490692,-6.22273271563,-5.89953004899,-5.60472118766,-5.36765852724,-5.21515690043,-5.16877530153,-5.24244489754,-5.44072363971,-5.75789293658,-6.1780198452,-6.67600120055,-7.21949747398,-7.77156714716,-8.29373861067,-8.74921442583,-9.10589586921,-9.33894255277,-9.43263724281,-9.38140239193,-9.18990402345,-8.87227137269,-8.45054729356,-7.952555191,-7.40941519399,-6.85296099359,-6.31329936883,-5.81672141432,-5.38412501534,-5.03004926858,-4.76235850333,-4.58255016081,-4.48660141086,-4.46621962965,-4.51032739215,-4.60659743798,-4.74285838332,-4.90821628652,-5.09377730025,-5.29290871097,-5.5010354482,-5.71503117168,-5.93231973723,-6.14984511512,-6.36308753709,-6.56529637589,-6.74707674912,-6.89641251219,-6.99914191941,-7.03983446545,-7.0029592973,-6.8741964561,-6.64172756257,-6.29735269389,-5.83731055613,-5.26272222527,-4.57962692614,-3.79862498641,-2.93418329222,-2.00368868201,-1.02635239209,-0.0220732452097,0.989639649458,1.99059872062,2.96465698582,3.89816737157,4.78015796587,5.60222564587,6.35818171908,7.04351587702,7.654773559,8.18896083452,8.64309485965,9.01400338437,9.29844368988,9.49356405648,9.59767656884,9.61125599751,9.53803168301,9.38600343386,9.16819462688,8.90296203407,8.61371626242,8.32796866338,8.07570449647,7.88717778444,7.79031772466,7.80801613557,7.95561744722,8.23894638789,8.65317665621,9.18276530035,9.80255850856,10.4800285394,11.1784477375,11.8606667574,12.4930638361,13.0491899582,13.5126610213,13.8789388468,14.1557815092,14.3623065097,14.5267745892,14.6833484346,14.8681942792,15.1153637774,15.4529108548,15.8996619732,16.4629741463,17.1376948104,17.9063961883,18.7408102655,19.6042559966,20.4547451215,21.248391631,21.942740713,22.4996751115,22.8876405902,23.0830417947,23.0707769898,22.8439877999,22.4031849274,21.754964863,20.9105532252,19.8843992965,18.6930084551,17.3541415038,15.886440461,14.3094671893,12.6440714777,10.9129457905,9.14118225868,7.35663116355,5.58987478863,3.87367760492,2.24184968389,0.727556312186,-0.638790132997,-1.83182666248,-2.83343011594,-3.63448725212,-4.23596499687,-4.64908838917,-4.89455701932,-5.00086558221,-5.00191557303,-4.93419421244,-4.83384259327,-4.73393458545,-4.66224483597,-4.63970776801,-4.67967341755,-4.78796524943,-4.96365353733,-5.20038616144,-5.48807348993,-5.81470791429,-6.168110128,-6.53742827428,-6.91426481695,-7.29336037075,-7.67281542123,-8.05387418584,-8.44032800426,-8.83762008179,-9.2517517624,-9.68810440756,-10.1503002547,-10.6392286105,-11.1523574904,-11.6834317735,-12.2226241928,-12.7571548148,-13.2723322094,-13.7529038134,-14.1845455313,-14.5552834327,-14.85663357,-15.0842748726,-15.2381333055,-15.3218440032,-15.3416569846,-15.3049436784,-15.2185290523,-15.087104769,-14.9119658963,-14.6902581131,-14.4148325738,-14.0746967628,-13.6559413468,-13.1429354298,-12.5195323949,-11.7700252516,-10.8796351588,-9.83440258307,-8.62046403789,-7.22282097314,-5.62382195097,-3.80166679755,-1.72928766975,0.626042129077,3.30207791148,6.3397637545,9.78013623089,13.6600838896,18.0072303645,22.8343416102,28.1337511868,33.8723413266,39.9876082022,46.3852808023,52.9388630174,59.4913397876,65.8591423849,71.8383148882,77.2126703365,81.7635750754,85.2808571597,87.5742055052,88.4843219233,87.8930246699,85.7314984288,81.985957241,76.700140749,69.9742952845,61.9605821802,52.8551773566,42.8876420045,32.3084144213,21.3754608995,10.3412008046,-0.559226424324,-11.1174525642,-21.1584963868,-30.5441970357,-39.1735011192,-46.9799543887,-53.9269991176,-60.0018409071,-65.2087149119,-69.5623547804,-73.0823599494,-75.7889860847,-77.7006713899,-78.8333830056,-79.2016481527,-78.820946975,-77.711005623,-75.8994492095,-73.4252579168,-70.3415128777,-66.7170137102,-62.6364846959,-58.199245892,-53.5163913703,-48.7066721268,-43.8914114042,-39.1888743783,-34.7085654225,-30.5459313922,-26.7779095338,-23.4596786689,-20.6228605588,-18.2752856831,-16.4022969758,-14.9694306011,-13.9261989507,-13.2106200685,-12.7540978067,-12.4862602488,-12.3394058955,-12.2522783437,-12.1729786948,-12.0609185085,-11.8878041027,-11.6377171604,-11.3064118952,-10.8999837987,-10.4330805566,-9.92682520332,-9.40660881797,-8.8998887932,-8.43410239838,-8.03477722762,-7.72389335301,-7.51852964795,-7.42981131475,-7.46216845258,-7.61291609343,-7.87217213943,-8.22313705787,-8.64276308176,-9.10283596736,-9.57147492863,-10.0150242241,-10.4002644159,-10.6968178113,-10.8795696134,-10.9308845892,-10.8423798243,-10.6160266561,-10.2644034126,-9.81000203767,-9.28359524935,-8.72178040096,-8.16391441955,-7.64872695977,-7.2109375718,-6.878204099,-6.66869530947,-6.58951659034,-6.63613214261,-6.79283068822,-7.03418404883,-7.3273575373,-7.63505512454,-7.9188271283,-8.14243894743,-8.27499934674,-8.29357586966,-8.18507882826,-7.94726626234,-7.58880163788,-7.1283767573,-6.59298920415,-6.01553229124,-5.43191161686,-4.87794183788,-4.38629658595,-3.98378085068,-3.68916717724,-3.51178536522,-3.45098380433,-3.49649641875,-3.62966228357,-3.82536553637,-4.05449924487,-4.28671307318,-4.49318304874,-4.6491434232,-4.73594564478,-4.74245646979,-4.66567303425,-4.51051230705,-4.28881903622,-4.01772132558,-3.71753557541,-3.40947130069,-3.1134023057,-2.84595053148,-2.61907641384,-2.4392944334,-2.30754723605,-2.21968877373,-2.16745694686,-2.13976705879,-2.12413417997,-2.10803771661,-2.08007383022,-2.03079463434,-1.95319654329,-1.84288104711,-1.69795807264,-1.51878726054,-1.30765360077,-1.06845428375,-0.806440918847,-0.52802445143,-0.240617043473,0.0475385917388,0.327612962571,0.590563484592,0.827675491144,1.03127449116,1.19557107652,1.31755654576,1.39783246704,1.44123905931,1.45715046719,1.45933109486,1.4652938017,1.49516217688,1.57010648758,1.71048539204,1.93387238912,2.25316941232,2.67500718554,3.19860546131,3.8152221913,4.50826624038,5.25408976141,6.02341843976,6.78332365782,7.49959257156,8.13931238659,8.67345651409,9.07924647673,9.34206909272,9.4567579458,9.42810277392,9.27052614657,9.0069543715,8.66699676221,8.28462167511,7.89556825301,7.53475234187,7.23391162473,7.01969235879,6.91231621082,6.92489072745,7.0633515284,7.32695810293,7.70921590924,8.19907017184,8.78221256624,9.4423584128,10.1623837486,10.925252119,11.7147037946,12.5157196061,13.3148019596,14.1001315853,14.8616574987,15.591161412,16.2823129176,16.9307069518,17.5338582779,18.0911234824,18.6035293821,19.0735042777,19.5045297014,19.900749475,20.2665853263,20.6064111382,20.924330568,21.2240870822,21.5091149085,21.7827177461,22.0483417627,22.309891462,22.5720222971,22.8403345207,23.1213921405,23.4225024265,23.751217028,24.1145545073,24.5179919142,24.9643229577,25.4525234254,25.9767915549,26.525934919,27.0832528454,27.6270161285,28.1315797514,28.5690880716,28.911654769,29.1338308514,29.2151215632,29.142284638,28.9111438122,28.5276856322,28.0082723975,27.3788922947,26.6734687413,25.9313535202,25.1942220639,24.502663953,23.8928070696,23.3933215551,23.0231159497,22.7899650117,22.6902051321,22.7095120645,22.8246526927,23.005994301,23.2204761228,23.4347092339,23.6178758346,23.7441442395,23.7943925892,23.7571303801,23.6286089249,23.4122061635,23.1172455896,22.757454736,22.3492820336,21.9102735215,21.4576684904,21.0073137563,20.5729292169,20.1656929887,19.7940638852,19.4637327732,19.1775986041,18.9356978206,18.735067185,18.5695751604,18.4298015934,18.3030692196,18.173728364,18.0237687565,17.8337856024,17.5842705799,17.2571429014,16.8373895823,16.3146525503,15.6845851158,14.9498027481,14.1202750614,13.2130494655,12.2512615436,11.2624675777,10.2764207522,9.3224921275,8.42699854912,7.61073210755,6.88698206757,6.26029668021,5.72615130709,5.27158081826,4.8767151921,4.51704730497,4.16617761189,3.79873136752,3.3931325622,2.93394190634,2.41351785381,1.83283221952,1.20135791517,0.536039137716,-0.140552179166,-0.802682988697,-1.42428712992,-1.98184766182,-2.45701461038,-2.83866374576,-3.12416040063,-3.31967802021,-3.43952547609,-3.50454987283,-3.53979002139,-3.57164584608,-3.62488807395,-3.71985264671,-3.87014363622,-4.08111102581,-4.34928370789,-4.66283379582,-5.00303635876,-5.34657847086,-5.66847209413,-5.94524665976,-6.15804984811,-6.2952785356,-6.35440224423,-6.34272849447,-6.27698446084,-6.18173531363,-6.08680531718,-6.02399263471,-6.02345674915,-6.11019821579,-6.3010400797,-6.60246082634,-7.00952792147,-7.50605102113,-8.06593001991,-8.65553235486,-9.23681413185,-9.77081717151,-10.2211414081,-10.5570144072,-10.7556528429,-10.8037210575,-10.697819294,-10.4440569302,-10.0568650579,-9.55726578841,-8.97083905011,-8.32561545726,-7.65008492256,-6.97145555332,-6.31423701818,-5.69916827634,-5.14247097544,-4.65539184086,-4.24399861948,-3.90920817809,-3.64704342116,-3.44912949656,-3.30344356774,-3.19532365957,-3.10872062645,-3.02764503061,-2.93772201589,-2.82772939605,-2.69096625754,-2.52628974047,-2.33867120018,-2.13915990422,-1.94419885738,-1.77430648154,-1.6522112681,-1.60059501438,-1.63965499083,-1.78472907702,-2.04423590345,-2.41816256671,-2.89728640242,-3.46324827586,-4.08950975253,-4.74313477656,-5.38724827079,-5.98394851663,-6.49739504561,-6.89676607984,-7.15878530581,-7.26955987296,-7.22554708103
4,6.88698206757,6.26029668021,5.72615130709,5.27158081826,4.8767151921,4.51704730497,4.16617761189,3.79873136752,3.3931325622,2.93394190634,2.41351785381,1.83283221952,1.20135791517,0.536039137716,-0.140552179166,-0.802682988697,-1.42428712992,-1.98184766182,-2.45701461038,-2.83866374576,-3.12416040063,-3.31967802021,-3.43952547609,-3.50454987283,-3.53979002139,-3.57164584608,-3.62488807395,-3.71985264671,-3.87014363622,-4.08111102581,-4.34928370789,-4.66283379582,-5.00303635876,-5.34657847086,-5.66847209413,-5.94524665976,-6.15804984811,-6.2952785356,-6.35440224423,-6.34272849447,-6.27698446084,-6.18173531363,-6.08680531718,-6.02399263471,-6.02345674915,-6.11019821579,-6.3010400797,-6.60246082634,-7.00952792147,-7.50605102113,-8.06593001991,-8.65553235486,-9.23681413185,-9.77081717151,-10.2211414081,-10.5570144072,-10.7556528429,-10.8037210575,-10.697819294,-10.4440569302,-10.0568650579,-9.55726578841,-8.97083905011,-8.32561545726,-7.65008492256,-6.97145555332,-6.31423701818,-5.69916827634,-5.14247097544,-4.65539184086,-4.24399861948,-3.90920817809,-3.64704342116,-3.44912949656,-3.30344356774,-3.19532365957,-3.10872062645,-3.02764503061,-2.93772201589,-2.82772939605,-2.69096625754,-2.52628974047,-2.33867120018,-2.13915990422,-1.94419885738,-1.77430648154,-1.6522112681,-1.60059501438,-1.63965499083,-1.78472907702,-2.04423590345,-2.41816256671,-2.89728640242,-3.46324827586,-4.08950975253,-4.74313477656,-5.38724827079,-5.98394851663,-6.49739504561,-6.89676607984,-7.15878530581,-7.26955987296,-7.22554708103,-7.03356664431,-6.70988427312,-6.27849488145,-5.76881626952,-5.21305702876,-4.64354121981,-4.09025770195,-3.57885847123,-3.12926516723,-2.75496460809,-2.46299207259,-2.2545242804,-2.12594075449,-2.0701687108,-2.07810717616,-2.13993341092,-2.24612914623,-2.38812187396,-2.55850914852,-2.750909824,-2.95955229344,-3.178754338,-3.40246419344,-3.62401547336,-3.83620284492,-4.03171858523,-4.20391326797,-4.34776958798,-4.46091987835,-4.54450701596,-4.60369335186,-4.64766509682,-4.68905424721,-4.74279298011,-4.82450858906,-4.94864347728,-5.12653236364,-5.36468192402,-5.66347686113,-6.01648615875,-6.41047288068,-6.82613084695,-7.23949203866,-7.62387778131,-7.95220999124,-8.19945922714,-8.34498643527,-8.37453782575,-8.28167973477,-8.06851329417,-7.74558463123,-7.33099828895,-6.84883825094,-6.32708770091,-5.7953002708,-5.28230014674,-4.81417069447,-4.41273420139,-4.09463973019,-3.87107810948,-3.74805040972,-3.72704417025,-3.80593045329,-3.97988866675,-4.24219296241,-4.58474642742,-4.99831620486,-5.47249187999,-5.99544976036,-6.55364847582,-7.13160131616,-7.7118656032,-8.2753594855,-8.80206512069,-9.27211109177,-9.66715604554,-9.97193126303,-10.1757526809,-10.2737910164,-10.2678974421,-10.1668235719,-9.98574558693,-9.74509443553,-9.46879282561,-9.1820881907,-8.90923375281,-8.67129703522,-8.48436256395,-8.35834470098,-8.29654446795,-8.2959823704,-8.34843274841,-8.44199074054,-8.56293564467,-8.69762453078,-8.83416080498,-8.96363043412,-9.08077423092,-9.18405433924,-9.27516157192,-9.358083898,-9.43790614409,-9.51953363186,-9.60652937138,-9.70022923726,-9.79925669553,-9.89950310232,-9.99457720077,-10.0766647767,-10.1376831158,-10.1705709293,-10.17052801,-10.1360147651,-10.0693437687,-9.97674469735,-9.86785608745,-9.7546813073,-9.65012693359,-9.5663053802,-9.51282115796,-9.49526794804,-9.51414180619,-9.56432690313,-9.63523977385,-9.71163475879,-9.77498796199,-9.80530089419,-9.78310843626,-9.69144741922,-9.51754746074,-9.25404563858,-8.89959617708,-8.45883441934,-7.94174515894,-7.36256242115,-6.73837853591,-6.08765899398,-5.4288464767,-4.77919746958,-4.15393653838,-3.56574841355,-3.02456976213,-2.53760241974,-2.10945425521,-1.74232219363,-1.43615757153,-1.18878713662,-0.9959941875,-0.851586912035,-0.747491899872,-0.673910412331,-0.619565999875,-0.572058133767,-0.518321026038,-0.445172224604,-0.339923597468,-0.191019220099,0.0113388276013,0.27461504528,0.603450611136,0.999290791965,1.46015907212,1.98060501977,2.55184830797,3.16213295147,3.79729408437,4.44152621897,5.0783281759,5.69158547128,6.26673486405,6.79193812532,7.25917503105,7.66515266359,8.01192353362,8.30711321709,8.56368278177,8.79919305294,9.0345927624,9.29261203076,9.59589510275,9.96504131898,10.4167342775,10.9621246641,11.6055964374,12.3439974701,13.1663652318,14.0541360511,14.98179975,15.9179509484,16.8266887298,17.6693181502,18.4063007426,18.9993816633,19.4137901483,19.6203752902,19.597511678,19.3325998216,18.8230021861,18.0762994194,17.1098184761,15.9494641081,14.6279636037,13.182698297,11.6533342769,10.0794740122,8.49853082611,6.94398481966,5.44412085268,4.02128666355,2.69165143798,1.46539911746,0.347260098054,-0.662730228614,-1.56835953584,-2.37635724201,-3.09558780523,-3.73637300112,-4.30996212876,-4.82813491954,-5.30289669427,-5.74621390053,-6.16974127584,-6.58450752742,-7.00055150069,-7.42653032803,-7.86934676043,-8.33385547709,-8.82270244229,-9.33632934964,-9.8731444953,-10.4298312574,-11.0017430418,-11.5833228169,-12.1684864769,-12.7509204493,-13.3242628583,-13.88216171,-14.4182300816,-14.9259435123,-15.3985445393,-15.8290294491,-16.2102891618,-16.5354571374,-16.7984815847,-16.9948898557,-17.1226572287,-17.1830422044,-17.1812195224,-17.1265416416,-17.032295012,-16.9148868276,-16.7924904973,-16.6832761063,-16.6034345372,-16.5652518527,-16.575493027,-16.6343109437,-16.73481771,-16.8633575314,-17.0004228175,-17.1220751062,-17.2016817804,-17.2117629104,-17.1257565945,-16.9195470135,-16.5726461036,-16.0689673034,-15.3971709715,-14.5505919679,-13.5267800336,-12.3266949288,-10.9536041639,-9.41173562969,-7.70474486388,-5.83407101505,-3.79727883092,-1.58651514764,0.812757043161,3.42255273146,6.27247358294,9.39891835619,12.8432110858,16.6485258354,20.8555856824,25.4972456501,30.5922256415,36.1384248428,42.1064024079,48.4337249785,55.0209333005,61.7298458888,68.3847857493,74.7770897801,80.672958897,85.8243629868,89.9823692484,92.9119577905,94.4071636234,94.3052711433,92.498805685,88.94422004,83.6664474194,76.7588568228,68.3785636868,58.7374753384,48.0898430098,36.7174072921,24.9134260078,12.9669400501,1.14855859716,-10.3011580072,-21.1799459402,-31.3283183921,-40.6302798824,-49.0106538045,-56.4297181431,-62.8760628689,-68.3586830522,-72.8992992108,-76.5257619534,-79.2671760944,-81.1511031598,-82.2029069518,-82.4470297752,-81.9097572574,-80.6228697221,-78.6275003137,-75.9775271004,-72.7419119612,-69.0055496072,-64.8683859798,-60.442782599,-55.8493165103,-51.2113900697,-46.649161226,-42.2733803412,-38.1797287194,-34.4441988644,-31.1199447821,-28.2358748866,-25.7970775257,-23.7869812824,-22.1709820258,-20.9011361966,-19.9214381055,-19.1731725187,-18.5998591735,-18.1513746957,-17.7869391818,-17.4767786911,-17.2024106539,-16.9556360562,-16.7364486296,-16.5501749098,-16.4042287182,-16.3048913595,-16.2545115451,-16.2494592433,-16.2790726314,-16.3257176472,-16.3659477419,-16.3726210452,-16.3177176701,-16.1755149905,-15.9257339358,-15.5562700233,-15.0651686892,-14.4615901597,-13.7656250618,-13.0069546399,-12.2224824113,-11.4531808117,-10.7404835808,-10.1226038441,-9.63116479179,-9.28849361491,-9.10585293873,-9.08277544575,-9.20753996691,-9.45869782942,-9.80744398795,-10.2205429157,-10.6634735923,-11.1034541136,-11.5120415783,-11.8670696767,-12.1537746606,-12.3650585066,-12.5009342943,-12.5672825674,-12.5741108845,-12.5335474932,-12.4578127382,-12.3573992099,-12.2396561471,-12.1079196518,-11.9612644868,-11.7948833629,-11.6010323696,-11.3704211932,-11.0938776138,-10.7640817439,-10.3771515157,-9.93387087267,-9.44038708319,-8.90826138533,-8.35383257626,-7.7969381364,-7.25912161326,-6.7615264749,-6.32272437406,-5.95674193037,-5.67153205925,-5.4680861567,-5.34030886291,-5.27568698761,-5.25668868694,-5.26273822859,-5.27253577041,-5.26644082398,-5.22862169436,-5.14869661536,-5.02265501796,-4.85294233009,-4.64770605805,-4.41931768588,-4.18238590143,-3.95154580243,-3.73933530698,-3.55445021375,-3.40060686359,-3.27614669504,-3.17440604859,-3.08476577212,-2.99420575743,-2.88913207919,-2.75722468587,-2.58907026626,-2.37939095574,-2.12774478352,-1.83864735157,-1.52113609402,-1.18785988841,-0.853821260406,-0.534922677433,-0.246472828972,-0.00179642382187,0.188933782584,0.319556705972,0.388424302674,0.398529157688,0.357272543509,0.275909944126,0.16872698382,0.0520095075003,-0.0571209368051,-0.141929980649,-0.187273451837,-0.180704074962,-0.113411036388,0.0190698370641,0.216427256141,0.473467626579,0.780358120637,1.12323264226,1.48515519428,1.8474118988,2.19107414814,2.49874160861,2.75633754586,2.95479528674,3.09145131773,3.17095642963,3.20553889543,3.21450661791,3.2229568008,3.25976346976,3.35501953124,3.53720087232,3.83037580277,4.25179087423,4.81012088536,5.50458426926,6.32501025116,7.2528199268,8.26276911134,9.32521428246,10.4086172105,11.4820031308,12.517125574,13.4901551084,14.3827844846,15.1827171671,15.8835729527,16.4843000478,16.9882256365,17.401904078,17.7339303831,17.9938745148,18.191459906,18.3360612914,18.4365394942,18.5013731148,18.5389983,18.5582356168,18.5686727151,18.580884812,18.6064092049,18.6574369442,18.7462334584,18.8843409597,19.0816439876,19.3453947892,19.6792990694,20.0827575887,20.5503476525,21.0716122698,21.6312042951,22.2094086682,22.7830389709,23.3266765568,23.8141935641,24.2204771561,24.5232523858,24.7048848216,24.7540313848,24.6670005647,24.4486845502,24.1129381405,23.6823031601,23.1870130667,22.6632623101,22.1507904492,21.6899104036,21.3181960942,21.0671236723,20.9590152959,21.0046478436,21.2018489697,21.5353070704,21.9776799809,22.491921351,23.0345829023,23.5597246257,24.0229956008,24.3854453271,24.6166852531,24.697126496,24.6191488694,24.3871836944,24.0167994856,23.5329555745,22.9676326458,22.3570652854,21.7387971287,21.1487623771,20.6185762797,20.1731972132,19.8291052207,19.5931227044,19.4619764926,19.4226613809,19.4536108582,19.5266128839,19.6093341753,19.6682463938,19.6716938716,19.5928150135,19.4120339441,19.118876142,18.7129277842,18.2038451835,17.6104168309,16.9587740066,16.2799260234,15.6068553233,14.9714417499,14.4014935662,13.9181468821,13.5338582145,13.2511607759,13.0622884606,12.9496976004,12.887440616,12.8432726771,12.7813076499,12.6649887298,12.4601080661,12.1376033082,11.6758802993,11.0624598552,10.2948182271,9.38037663515,8.33568340556,7.18491062555,5.95784614778,4.68759574672,3.40821821096,2.15250064734,0.950047055591,-0.174193750737,-1.20088822636,-2.11674733131,-2.91445524538,-3.59216913072,-4.15269301141,-4.60244908561,-4.95037694757,-5.20688400912,-5.38294987965,-5.48945733158,-5.53678759468,-5.53468190405,-5.4923368359,-5.41867024205,-5.32267086226,-5.21373212235,-5.10187283377,-4.99776594755,-4.91252942902,-4.85727561639,-4.84245939106,-4.87710238209,-4.96799293504,-5.11896616706,-5.33035613051,-5.59868737065,-5.9166419365,-6.27330601103,-6.65467248517,-7.04435525632,-7.42445960342,-7.77655115382,-8.08267255844,-8.3263686678,-8.49369216252,-8.57416591422,-8.56167150755,-8.45521542847,-8.25950057029,-7.98520983172,-7.64890071292,-7.27242304385,-6.88180982253,-6.50565123261,-6.17303624984,-5.91122251804,-5.74325863308,-5.68581903776,-5.74750943337,-5.92785629085,-6.21711369115,-6.59691914366,-7.04172633184,-7.52085450979,-8.00093363269,-8.44849673405,-8.83247602715,-9.12639146654,-9.31007178285,-9.37080863584,-9.30390491698,-9.11263023182,-8.80763504955,-8.40589902672,-7.92930214202,-7.40291601086,-6.85312352444,-6.30569068841,-5.78393233977,-5.3071254445,-4.88932084482,-4.53868020734,-4.25741758627,-4.04235748658,-3.88604180273,-3.77823928731,-3.70764828829,-3.66355007433,-3.63717470809,-3.62258503485,-3.61696018186,-3.62025576504,-3.63431855346,-3.6616223606,-3.70385410048,-3.760602817,-3.82838543998,-3.90018463399,-3.96558737085,-4.01151372256,-4.02343165516,-3.98688167896,-3.8890967665,-3.72050258201,-3.4759173296,-3.15532878904
4,12.8432726771,12.7813076499,12.6649887298,12.4601080661,12.1376033082,11.6758802993,11.0624598552,10.2948182271,9.38037663515,8.33568340556,7.18491062555,5.95784614778,4.68759574672,3.40821821096,2.15250064734,0.950047055591,-0.174193750737,-1.20088822636,-2.11674733131,-2.91445524538,-3.59216913072,-4.15269301141,-4.60244908561,-4.95037694757,-5.20688400912,-5.38294987965,-5.48945733158,-5.53678759468,-5.53468190405,-5.4923368359,-5.41867024205,-5.32267086226,-5.21373212235,-5.10187283377,-4.99776594755,-4.91252942902,-4.85727561639,-4.84245939106,-4.87710238209,-4.96799293504,-5.11896616706,-5.33035613051,-5.59868737065,-5.9166419365,-6.27330601103,-6.65467248517,-7.04435525632,-7.42445960342,-7.77655115382,-8.08267255844,-8.3263686678,-8.49369216252,-8.57416591422,-8.56167150755,-8.45521542847,-8.25950057029,-7.98520983172,-7.64890071292,-7.27242304385,-6.88180982253,-6.50565123261,-6.17303624984,-5.91122251804,-5.74325863308,-5.68581903776,-5.74750943337,-5.92785629085,-6.21711369115,-6.59691914366,-7.04172633184,-7.52085450979,-8.00093363269,-8.44849673405,-8.83247602715,-9.12639146654,-9.31007178285,-9.37080863584,-9.30390491698,-9.11263023182,-8.80763504955,-8.40589902672,-7.92930214202,-7.40291601086,-6.85312352444,-6.30569068841,-5.78393233977,-5.3071254445,-4.88932084482,-4.53868020734,-4.25741758627,-4.04235748658,-3.88604180273,-3.77823928731,-3.70764828829,-3.66355007433,-3.63717470809,-3.62258503485,-3.61696018186,-3.62025576504,-3.63431855346,-3.6616223606,-3.70385410048,-3.760602817,-3.82838543998,-3.90018463399,-3.96558737085,-4.01151372256,-4.02343165516,-3.98688167896,-3.8890967665,-3.72050258201,-3.4759173296,-3.15532878904,-2.7641934218,-2.31326411192,-1.81799919866,-1.29763285073,-0.773998361378,-0.270197574174,0.190792672206,0.587488832739,0.901157961398,1.11688292777,1.22436436766,1.21840577144,1.0990531663,0.871390387432,0.545020782803,0.133293144896,-0.347648030849,-0.87989185408,-1.44476689433,-2.02372611633,-2.59903348129,-3.15420847843,-3.67422815789,-4.14553254128,-4.55591964194,-4.89444041708,-5.15140312658,-5.3185679662,-5.38956184034,-5.36048198531,-5.23060083991,-5.00304588226,-4.68531411618,-4.28949224366,-3.83208709783,-3.33342162627,-2.81661252595,-2.30620636705,-1.82660008466,-1.40040022098,-1.04688043659,-0.78068159711,-0.610869418445,-0.540427525248,-0.566223003869,-0.67943896871,-0.866425911552,-1.1098841641,-1.3902587739,-1.68720991223,-1.98101891058,-2.25380265428,-2.49043657134,-2.67912640964,-2.81161657168,-2.88307073517,-2.89170062623,-2.83824473972,-2.72540821768,-2.55736939199,-2.33943993404,-2.07793492903,-1.78026648167,-1.45522222959,-1.11333649351,-0.7672195307,-0.431692467204,-0.123590104869,0.138858722708,0.337091038152,0.453644161186,0.473821401036,0.387389218439,0.190080898005,-0.115308632792,-0.518410665356,-1.00146110397,-1.5401971071,-2.10541668595,-2.66507067053,-3.18669723342,-3.6399715367,-3.99912990323,-4.24503984356,-4.36672285335,-4.3621925845,-4.23854099337,-4.01128134477,-3.70302985062,-3.34166757304,-2.95816339083,-2.58425346763,-2.25016357944,-1.98253321664,-1.80266326518,-1.72517179754,-1.7571120274,-1.89758476596,-2.13786165886,-2.462019146,-2.84806084316,-3.26947516262,-3.69713690591,-4.10142170091,-4.45436851327,-4.73170637911,-4.91456332452,-4.990700764,-4.95516353146,-4.81029768685,-4.56515589539,-4.23437336405,-3.83664766394,-3.39298796029,-2.92491094146,-2.45275230384,-1.99423653589,-1.56340875504,-1.16998679721,-0.819145939628,-0.5117076275,-0.244670980119,-0.0120040949103,0.194397581742,0.383677056263,0.564987525217,0.7465392902,0.93477988996,1.13375728651,1.34470939231,1.56591538369,1.7928325964,2.01852640984,2.23437952614,2.4310416301,2.59955143188,2.73253377281,2.8253505514,2.87707192506,2.89113818075,2.87560492621,2.84290398498,2.8091056713,2.79272856309,2.81320262737,2.88914223932,3.03661923302,3.26763606702,3.58898199281,4.00161162719,4.50062085088,5.07581830138,5.71281296463,6.39447145294,7.10255336424,7.81931683669,8.52890062309,9.2183299228,9.87805372772,10.5019930317,11.0871524774,11.6329126446,12.140166234,12.6104808565,13.0454594342,13.4464260658,13.8144951715,14.150994839,14.4581271332,14.7396781345,15.0015571829,15.2519598072,15.501011983,15.75985221,16.0392209548,16.3477299769,16.6900562052,17.0653337304,17.4660007021,17.8773018841,18.2775642355,18.6392658642,18.9308211579,19.1189183441,19.171179837,19.0588777451,18.7594311074,18.2584383208,17.5510539884,16.6425956371,15.548350637,14.2926346191,12.9072192939,11.4292934044,9.89914354222,8.35774321676,6.84442292589,5.39476650854,4.03884560042,2.79986928047,1.69329258815,0.726396462812,-0.101676097649,-0.799464778026,-1.38236790065,-1.87150350618,-2.29230633129,-2.67290762233,-3.04234699773,-3.42867854268,-3.85705700426,-4.34791876035,-4.91539618737,-5.56611246345,-6.29848959152,-7.10266437375,-7.96105003104,-8.84951445755,-9.73908132259,-10.5980082131,-11.3940637996,-12.09681544,-12.6797472738,-13.1220523592,-13.4099765697,-13.5376334708,-13.5072553626,-13.3288927658,-13.0196185812,-12.6023291892,-12.1042590566,-11.5553362496,-10.986504408,-10.4281249412,-9.9085548185,-9.45297270927,-9.08250015307,-8.81363518583,-8.65798507198,-8.62225641311,-8.70844030199,-8.91412196087,-9.23284963358,-9.65451299734,-10.1657008649,-10.7500261613,-11.3884208256,-12.0594145048,-12.7394193599,-13.403049294,-14.0235052462,-14.5730581871,-15.0236567491,-15.3476750392,-15.5187960306,-15.5129961882,-15.3095599048,-14.8920142875,-14.2488456868,-13.3738495186,-12.265981635,-10.9286241897,-9.36824696077,-7.59252769685,-5.60808190605,-3.41803334607,-1.01972140231,1.59711886825,4.45136233954,7.57037741016,10.9885569414,14.7443840774,18.876071543,23.415981982,28.3842045121,33.7818090095,39.584406887,45.7367008463,52.1486956738,58.6941620119,65.2117961588,71.5093104367,77.3704377587,82.5645642855,86.8584421359,90.0292065941,91.8777535363,92.2414434574,91.0051026524,88.1093945824,83.5558290831,77.4079476736,69.7885452775,60.8731309926,50.8801578956,40.0588292834,28.6754868892,16.9996857067,5.29105167728,-6.2120946678,-17.3015703012,-27.8051126324,-37.5889192929,-46.5570639751,-54.6481894968,-61.8301033646,-68.0930500977,-73.4425005766,-77.8922816172,-81.4587748689,-84.1567542966,-85.9972221962,-86.9873653762,-87.1325086894,-86.4397155955,-84.9224963586,-82.6059527269,-79.5316283266,-75.7613548336,-71.3794844737,-66.4930690551,-61.2297664648,-55.7335044742,-50.1581830204,-44.6599225387,-39.3885410209,-34.479044601,-30.0439324633,-26.1670442279,-22.89952508,-20.2582687492,-18.2269462124,-16.7594681613,-15.785492298,-15.2174002255,-14.958054182,-14.9086116942,-14.9757244673,-15.0775629778,-15.148268919,-15.1406197213,-15.0268703733,-14.7978998252,-14.460920046,-14.0360984681,-13.5524967169,-13.0437413125,-12.5438192153,-12.0833388155,-11.6865233859,-11.3691183145,-11.1373042508,-10.9876223914,-10.9078398701,-10.8786153499,-10.875769871,-10.8729287962,-10.8442804361,-10.7671976983,-10.6244911058,-10.4061028547,-10.1101081584,-9.74295580222,-9.31894719937,-8.85901533007,-8.38891696189,-7.93699160403,-7.53166927771,-7.19892788658,-6.95991041066,-6.82891067336,-6.81191994673,-6.9058904829,-7.09881400562,-7.37063599182,-7.69493838446,-8.04123635665,-8.37766215988,-8.67376208527,-8.90311795747,-9.04552426862,-9.08850349348,-9.02801898635,-8.86833777593,-8.6210931451,-8.30368697663,-7.93724306148,-7.54436576346,-7.14696816799,-6.76440932499,-6.41212551065,-6.10086401576,-5.83654142281,-5.62066467348,-5.45118468095,-5.32360791747,-5.23217547169,-5.17093041299,-5.13452814567,-5.11869474535,-5.12029902455,-5.13706884539,-5.16704317838,-5.20789915099,-5.25631772817,-5.30754471862,-5.35526381294,-5.39183282145,-5.4088584074,-5.39801610679,-5.35197594737,-5.26527782075,-5.13501579395,-4.96123090494,-4.74696719799,-4.4980036226,-4.22232368982,-3.92941711908,-3.62951894037,-3.33288209004,-3.04915424954,-2.78689650704,-2.55324934915,-2.35372772564,-2.19211481277,-2.07042277893,-1.98889476876,-1.94603143478,-1.93863486579,-1.96187155333,-2.00936383541,-2.07332539676,-2.14475911645,-2.21373258381,-2.26973691204,-2.30211964222,-2.30056654702,-2.25559470582,-2.1590137776,-2.00431509585,-1.7869578749,-1.50453548851,-1.15681871943,-0.745684015493,-0.274942069534,0.249913351864,0.82201240724,1.43344383439,2.0755861276,2.73940563157,3.41570056661,4.09528558784,4.7691306135,5.42848482437,6.06502623923,6.67107482153,7.23989100376,7.76605385975,8.2458800771,8.67781551219,9.06271462602,9.40392542534,9.70711955082,9.97984505514,10.2308262097,10.4690815685,10.7029690729,10.9392868967,11.1825561561,11.4345869011,11.6943875855,11.9584293205,12.2212286544,12.4761733968,12.716489626,12.9362367732,13.1312217169,13.2997399719,13.443077993,13.5657398625,13.6753891086,13.7825187677,13.8998790412,14.0417026987,14.222775133,14.4574001411,14.7583157513,15.1356186084,15.595762169,16.1407035961,16.7672847777,17.4669393638,18.2258129942,19.0253611202,19.8434446232,20.6558800263,21.4383268166,22.1683230156,22.8272287387,23.4018225386,23.8853267797,24.2777147486,24.5852600265,24.8194058249,24.995134273,25.1290827941,25.2376749688,25.3355058186,25.4341559751,25.5415232324,25.6616737643,25.7951461168,25.9395987442,26.0906774703,26.2429869296,26.3910700114,26.5303211138,26.6577746684,26.7727168742,26.8770684148,26.9754856535,27.0751349524,27.1851145142,27.3155312561,27.4762830849,27.6756430671,27.9187835274,28.2064071922,28.5336627218,28.8895097762,29.2566640338,29.6121983464,29.9288079543,30.17667252,30.3257739825,30.348466029,30.2220474493,29.9310749092,29.4691639474,28.840068895,28.0578981743,27.1464044753,26.137382195,25.0682991045,23.979376444,22.9104017287,21.8976012333,20.9709050723,20.1519007906,19.452691481,18.8757604498,18.4148137158,18.056446308,17.7823795675,17.5719593733,17.4045951196,17.2618530375,17.1289855788,16.9957687804,16.8566184831,16.7100503906,16.557625797,16.402575556,16.2483158178,16.0970615088,15.948712455,15.8001395371,15.6449418912,15.4736877657,15.2745967329,15.0345740218,14.7404724834,14.3804370552,13.9451823912,13.4290667508,12.830852309,12.1540796511,11.4070270549,10.6022679216,9.75587799172,8.88637449845,8.01348987918,7.15689154212,6.33495584682,5.56368966304,4.85586930964,4.22043873988,3.66218144428,3.1816575604,2.77538109592,2.43620225401,2.1538557062,1.91563561998,1.70716015505,1.51318999302,1.31846642558,1.10853530471,0.870524880568,0.593848069159,0.270801471617,-0.102966630688,-0.528148390025,-1.00165810295,-1.51673009261,-2.06325105254,-2.62833011291,-3.19708817062,-3.75362204539,-4.28207371276,-4.76771625246,-5.19796112765,-5.56319805438,-5.85739781219,-6.07843576708,-6.22812393773,-6.31196713686,-6.33868142445,-6.31952993939,-6.26754131254,-6.1966783817,-6.12102016343,-6.05401001486,-6.00781008589,-5.99278812815,-6.0171483313,-6.08670396558,-6.20477756449,-6.37220568117,-6.58742075167,-6.84658209168,-7.14373082143,-7.47094935806,-7.8185156089,-8.17505534789,-8.52771181864,-8.86236570015,-9.16394683767,-9.41687821757,-9.60568112487,-9.71574897228,-9.73426855901,-9.65123560286,-9.46048118599,-9.16060223899,-8.75567683077,-8.25564729607,-7.67627297875,-7.03858932217,-6.36785860848,-5.69205513824,-5.03998756065,-4.43921542087,-3.91395689379,-3.48320183672,-3.15923333433,-2.94672138843,-2.84248941609,-2.83597721074,-2.9103445383,-3.04408898239,-3.21299963689,-3.39224134381,-3.55836466725,-3.69106206088,-3.77453413636,-3.79838322841,-3.75800660329,-3.65451212747,-3.49422016075,-3.28784381577,-3.04945426877,-2.79533878442,-2.54284811381,-2.30930979036,-2.11105843784,-1.96260779087,-1.87596597833,-1.86007987874,-1.92038943576,-2.05847993127,-2.27183703331,-2.55373042474,-2.89327019376,-3.27568992427,-3.68290728446,-4.09439491836,-4.48836271498
4,-0.102966630688,-0.528148390025,-1.00165810295,-1.51673009261,-2.06325105254,-2.62833011291,-3.19708817062,-3.75362204539,-4.28207371276,-4.76771625246,-5.19796112765,-5.56319805438,-5.85739781219,-6.07843576708,-6.22812393773,-6.31196713686,-6.33868142445,-6.31952993939,-6.26754131254,-6.1966783817,-6.12102016343,-6.05401001486,-6.00781008589,-5.99278812815,-6.0171483313,-6.08670396558,-6.20477756449,-6.37220568117,-6.58742075167,-6.84658209168,-7.14373082143,-7.47094935806,-7.8185156089,-8.17505534789,-8.52771181864,-8.86236570015,-9.16394683767,-9.41687821757,-9.60568112487,-9.71574897228,-9.73426855901,-9.65123560286,-9.46048118599,-9.16060223899,-8.75567683077,-8.25564729607,-7.67627297875,-7.03858932217,-6.36785860848,-5.69205513824,-5.03998756065,-4.43921542087,-3.91395689379,-3.48320183672,-3.15923333433,-2.94672138843,-2.84248941609,-2.83597721074,-2.9103445383,-3.04408898239,-3.21299963689,-3.39224134381,-3.55836466725,-3.69106206088,-3.77453413636,-3.79838322841,-3.75800660329,-3.65451212747,-3.49422016075,-3.28784381577,-3.04945426877,-2.79533878442,-2.54284811381,-2.30930979036,-2.11105843784,-1.96260779087,-1.87596597833,-1.86007987874,-1.92038943576,-2.05847993127,-2.27183703331,-2.55373042474,-2.89327019376,-3.27568992427,-3.68290728446,-4.09439491836,-4.48836271498,-4.84321128895,-5.13917187732,-5.3600063849,-5.49460915734,-5.53833465755,-5.49387700784,-5.371551602,-5.18887708616,-4.96942576069,-4.74099431074,-4.53323224011,-4.37493831454,-4.2912841444,-4.30124226983,-4.41548238246,-4.63495619049,-4.950324623,-5.34229905368,-5.78288117344,-6.23740376325,-6.66720413374,-7.03270770241,-7.29666355317,-7.42725866862,-7.40084418765,-7.20403617525,-6.83500472824,-6.30383693421,-5.63194642536,-4.8505958351,-3.99868517818,-3.12002517204,-2.26035014027,-1.46432800956,-0.772799340272,-0.22043132131,0.166085058677,0.369227935985,0.381219215183,0.20402182016,-0.15116412954,-0.664811037831,-1.31028165362,-2.05526720628,-2.86337486091,-3.69581093316,-4.5131193309,-5.27693995044,-5.95174799068,-6.50652388712,-6.916289178,-7.16343177707,-7.23873934814,-7.14206348677,-6.88254946247,-6.47838463673,-5.95604199353,-5.34902289789,-4.69613487496,-4.03937484047,-3.42152336512,-2.88358734361,-2.46225233425,-2.18751774974,-2.08068531678,-2.15285310148,-2.4040354347,-2.82298653938,-3.38775675493,-4.06695941877,-4.82167800887,-5.60790067234,-6.37933486736,-7.09042890917,-7.69940920396,-8.17113166437,-8.47954405386,-8.60956470286,-8.55820501623,-8.33480212876,-7.96028768409,-7.46550013937,-6.88864582388,-6.27211441839,-5.65893875402,-5.08923986622,-4.59700636768,-4.20752138169,-3.93567674843,-3.78531429296,-3.74962167035,-3.81249999918,-3.95072448982,-4.13664664379,-4.34114312949,-4.53650505715,-4.69898225003,-4.81074745266,-4.86111945618,-4.84697340025,-4.77236049858,-4.64744646029,-4.48694667429,-4.30827807453,-4.12965832989,-3.96836369037,-3.83931299402,-3.75408522384,-3.72041086766,-3.74211238589,-3.81941478314,-3.94951062036,-4.1272494918,-4.3458313406,-4.59741297871,-4.87358034715,-5.16568479843,-5.46507880618,-5.76330620839,-6.05230051415,-6.32462428707,-6.57375105674,-6.79435938852,-6.98258651681,-7.13618212033,-7.25451228012,-7.33838659805,-7.38971299202,-7.4110188481,-7.40490745678,-7.37353870185,-7.31822800378,-7.23924538903,-7.13586840219,-7.00670262981,-6.85023800481,-6.6655644269,-6.45313315378,-6.21542766733,-5.95740562197,-5.68659585285,-5.41278037379,-5.14725446641,-4.90172762211,-4.68699176772,-4.5115296788,-4.38025793787,-4.29359140482,-4.2469801425,-4.23100973327,-4.23208116953,-4.23360918406,-4.21760996677,-4.16649968347,-4.06489900783,-3.9012372919,-3.66897201254,-3.3672826491,-3.00115970552,-2.58088279309,-2.12095689529,-1.63864223213,-1.15226083795,-0.679485133986,-0.235807263538,0.166645752843,0.519840781455,0.82006749715,1.06769160614,1.26651686963,1.42288655264,1.54468193262,1.6403798539,1.71831149834,1.78622241438,1.85117524316,1.91977057851,1.99859863831,2.09478527324,2.21646886111,2.37304546263,2.57505011905,2.83359979761,3.15940088575,3.56140953274,4.04531184941,4.61204790082,5.25662609345,5.96745615799,6.72637046916,7.50941416226,8.28837990803,9.03296101959,9.71331214949,10.3027503091,10.7803050319,11.1328359326,11.3564763218,11.4572275063,11.4506119517,11.360385678,11.2164029882,11.0518127814,10.89983794,10.790439377,10.7471865712,10.7846423499,10.9065222926,11.1048149673,11.359958344,11.642070886,11.9131424445,12.1300078073,12.2478605995,12.2240214165,12.0216535736,11.613122502,10.9827193814,10.1285147267,9.06317167234,7.81362838627,6.41964889186,4.9313343058,3.40577424541,1.90309327257,0.48220259697,-0.803403252525,-1.90946563893,-2.80408959605,-3.46993344888,-3.90529632908,-4.12403482318,-4.15433663259,-4.03646746678,-3.81968036927,-3.55853029614,-3.30886966051,-3.12381316336,-3.0499540829,-3.12409153353,-3.37069155429,-3.80025641168,-4.40871776758,-5.17790209421,-6.07704386897,-7.06524792919,-8.09473141508,-9.11461184149,-10.0749548583,-10.9307585545,-11.6455380309,-12.1941915918,-12.5648820188,-12.7597510367,-12.7943946272,-12.6961492759,-12.5013598846,-12.2519035551,-11.9913159956,-11.7608994781,-11.5961803639,-11.5240348553,-11.5607236385,-11.7109809492,-11.9682020816,-12.3156748048,-12.7287115676,-13.1774647476,-13.6301485064,-14.0563505842,-14.4301000034,-14.7323672431,-14.9527160236,-15.0899018296,-15.1513193039,-15.1513308489,-15.1086480624,-15.0430666419,-14.9719530328,-14.9069294374,-14.8511920032,-14.7978234102,-14.7293335683,-14.6184974652,-14.4303807538,-14.1252777348,-13.6621577783,-13.0021444112,-12.1115478622,-10.9640390667,-9.54168335716,-7.8347280275,-5.84023465623,-3.5598354574,-0.997044709106,1.84535171111,4.96728843767,8.37231648642,12.0670609229,16.0590920027,20.3532892201,24.9470106132,29.8245859951,34.9518024384,40.2711203843,45.6983373434,51.1213039599,56.4011070736,61.3758896118,65.867207486,69.6885600557,72.655500224,74.5965536212,75.364068549,74.8440896056,72.9644030482,69.7000387953,65.075722838,59.1650384377,52.0863522206,43.9958631877,35.0784052405,25.5368436352,15.5810252157,5.41725508207,-4.76082302643,-14.7792553516,-24.488287418,-33.764220497,-42.5087764733,-50.64639281,-58.1200667889,-64.8864829198,-70.9111802521,-76.1644489016,-80.6184987454,-84.2462374123,-87.021755565,-88.9223756241,-89.9319067252,-90.0445907255,-89.2691395153,-87.6322595493,-85.1811311162,-81.9844438734,-78.1317663747,-73.7312217662,-68.9056302031,-63.7874392743,-58.5128802832,-53.2158503535,-48.0220246502,-43.0436533177,-38.3754043721,-34.0914920356,-30.2441974059,-26.8637617029,-23.959524819,-21.5221013664,-19.5263353571,-17.934751583,-16.7012231137,-15.7745956105,-15.1020453692,-14.631994052,-14.3164542775,-14.1127329232,-13.9844706708,-13.9020453467,-13.8424114656,-13.7884868143,-13.7282256554,-13.6535337058,-13.5591798387,-13.4418424857,-13.2993957564,-13.1304943127,-12.9344625447,-12.7114403317,-12.4626930721,-12.1909650534,-11.9007475579,-11.598348338,-11.2916857561,-10.9897836803,-10.7020032203,-10.4371033171,-10.2022628324,-10.0022138369,-9.83862577813,-9.70984476456,-9.61103733487,-9.53472323176,-9.47161873826,-9.41166329334,-9.34507683708,-9.26329745856,-9.15967592286,-9.0298484172,-8.87176241194,-8.68538434856,-8.47216487181,-8.23437184629,-7.97441892399,-7.69431498223,-7.3953368897,-7.07798770761,-6.74225088376,-6.38809685566,-6.01615086666,-5.62839758062,-5.22878480369,-4.82359800034,-4.42150860012,-4.03324781901,-3.67091614688,-3.34699726172,-3.0731942136,-2.85923707286,-2.71181970371,-2.63380770875,-2.62382280797,-2.67625747618,-2.78171623126,-2.92782529671,-3.10030773424,-3.28419195564,-3.46501137051,-3.62986306996,-3.76822185263,-3.87244697569,-3.93796497211,-3.96315517146,-3.94899978471,-3.89858432776,-3.81654435455,-3.70854869501,-3.58088700288,-3.44019367224,-3.29329867237,-3.14715842993,-3.0087958324,-2.88517421387,-2.78294797062,-2.70806913447,-2.66527646452,-2.65753939086,-2.68556104471,-2.7474537565,-2.83868412899,-2.95234682521,-3.07977468471,-3.21143742675,-3.33803108047,-3.45162273995,-3.54669563309,-3.62094096315,-3.67566605825,-3.71573073828,-3.7489805828,-3.78521012865,-3.83475297979,-3.90685101849,-4.00799346348,-4.140432295,-4.30107078184,-4.48088797776,-4.66500913213,-4.83346663392,-4.96262490567,-5.0271714233,-5.00251024388,-4.86733946495,-4.60615502338,-4.2114049099,-3.6850249055,-3.0391239084,-2.29565681649,-1.48502444228,-0.643664929755,0.189165779636,0.975105925159,1.68048544994,2.27976256222,2.75817147276,3.11323212537,3.35490459176,3.50433958338,3.59135812461,3.65096035463,3.71929052329,3.82955417515,4.00838516074,4.27309517919,4.63011685364,5.07479030643,5.59246594315,6.16072873597,6.75241674044,7.33902788832,7.89409274184,8.39613287901,8.83091034759,9.19278303295,9.4850939001,9.71962369656,9.91521846187,10.0957630231,10.2877113912,10.5174072488,10.8084339248,11.1792236129,11.6411307496,12.1971363132,12.8413004142,13.5590211057,14.3280892043,15.1204562129,15.9045631396,16.6480218512,17.3204053713,17.895892791,18.3555277222,18.6888838765,18.8949841053,18.9823865114,18.9684283522,18.8776988526,18.7398875357,18.5872164898,18.4517051879,18.3625292339,18.3437173473,18.4123861466,18.5776469194,18.8402433569,19.1929058775,19.62134603,20.1057687526,20.6227523311,21.1473345757,21.6551462373,22.1244446782,22.5379168907,22.8841365035,23.1585729317,23.3640651336,23.5106932633,23.6150145351,23.698677347,23.7864878799,23.9040690604,24.0753124141,24.3198666699,24.6509218881,25.0735284228,25.5836377805,26.1679757619,26.8047689308,27.4652557691,28.1158351502,28.720646203,29.2443409182,29.6548050471,29.9256005832,30.0379383595,29.9820359228,29.7577692573,29.3745839751,28.8506893983,28.2116141567,27.488250742,26.7145552833,25.9250944983,25.1526419449,24.4260189819,23.7683519609,23.195876824,22.7173676876,22.3342019184,22.0410084064,21.8267878502,21.6763530338,21.5719195403,21.4946849936,21.4262648659,21.3498976668,21.2513811356,21.1197424282,20.9476706881,20.7317466969,20.4724939165,20.174254422,19.8448704014,19.4951364187,19.1379879839,18.7874128944,18.4571121056,18.1589894926,17.9016038302,17.6887591288,17.5184293527,17.38220203,17.2653796336,17.1478023274,17.0053619205,16.8120803039,16.5425430002,16.1744238136,15.6908181779,15.0821217281,14.3472418048,13.4940044563,12.5387080534,11.5048665553,10.4212705834,9.3195637165,8.23157822649,7.18669542373,6.20949037236,5.31789042666,4.52202458747,3.82387009729,3.21771948986,2.69140266354,2.22811329073,1.80861732366,1.41357446885,1.02569065295,0.631445453844,0.222201279711,-0.205408135352,-0.649808115174,-1.10543038134,-1.56409616001,-2.0166073352,-2.45430869043,-2.8704095608,-3.26090477404,-3.6250014334,-3.9650281888,-4.28586700154,-4.59399730427,-4.896276561,-5.19860079968,-5.5045963105,-5.81449126668,-6.12430417962,-6.42546492805,-6.70495369214,-6.9460032242,-7.12935939705,-7.23503319964,-7.24440734647,-7.14249182874,-6.92006961309,-6.57545137502,-6.11557724672,-5.55626695008,-4.92152142628,-4.24190500372,-3.55216700284,-2.88837258071,-2.28488376461,-1.77154941792,-1.37142479229,-1.09925652912,-0.960855256617,-0.953356337193,-1.06625916803,-1.28305118968,-1.58317291164,-1.94406742787,-2.34307956426,-2.75901972742,-3.17327714709,-3.57044611283,-3.93850475947,-4.26864641165,-4.55489881192,-4.79367238291,-4.98335611352,-5.12403442959,-5.21734024749,-5.26640106047,-5.27578985227,-5.25137210234,-5.19995064018,-5.12865181165,-5.04406232161,-4.95120216898,-4.85248674007,-4.74687235906,-4.6293823711,-4.49117229394,-4.32021907969,-4.10262435089,-3.82442138947,-3.47368766835,-3.0427034838,-2.52987298499,-1.94114049852,-1.29068927118,-0.600792401772,0.0992158032543,0.774779173866,1.38861105349,1.90361090381,2.28593962317,2.5079774741,2.55090605422,2.40669432428,2.0793210787
4,-4.28586700154,-4.59399730427,-4.896276561,-5.19860079968,-5.5045963105,-5.81449126668,-6.12430417962,-6.42546492805,-6.70495369214,-6.9460032242,-7.12935939705,-7.23503319964,-7.24440734647,-7.14249182874,-6.92006961309,-6.57545137502,-6.11557724672,-5.55626695008,-4.92152142628,-4.24190500372,-3.55216700284,-2.88837258071,-2.28488376461,-1.77154941792,-1.37142479229,-1.09925652912,-0.960855256617,-0.953356337193,-1.06625916803,-1.28305118968,-1.58317291164,-1.94406742787,-2.34307956426,-2.75901972742,-3.17327714709,-3.57044611283,-3.93850475947,-4.26864641165,-4.55489881192,-4.79367238291,-4.98335611352,-5.12403442959,-5.21734024749,-5.26640106047,-5.27578985227,-5.25137210234,-5.19995064018,-5.12865181165,-5.04406232161,-4.95120216898,-4.85248674007,-4.74687235906,-4.6293823711,-4.49117229394,-4.32021907969,-4.10262435089,-3.82442138947,-3.47368766835,-3.0427034838,-2.52987298499,-1.94114049852,-1.29068927118,-0.600792401772,0.0992158032543,0.774779173866,1.38861105349,1.90361090381,2.28593962317,2.5079774741,2.55090605422,2.40669432428,2.0793210787,1.58512571021,0.952240571309,0.219118436273,-0.567773966852,-1.35697069468,-2.09555154433,-2.73298990769,-3.22503381089,-3.53732139654,-3.64842374159,-3.55202620098,-3.2580079513,-2.79225828015,-2.19517294868,-1.51889452806,-0.823482448578,-0.172306213166,0.37296376887,0.757347147562,0.937098986466,0.883416186777,0.584984807248,0.0491531816866,-0.698359729279,-1.615182456,-2.64527811944,-3.7229437318,-4.77749154708,-5.7382379532,-6.53941180449,-7.12461212272,-7.45049366191,-7.48943366802,-7.23102687477,-6.68235904613,-5.86711193117,-4.8236435299,-3.60225671105,-2.26190875011,-0.866621669902,0.51816788868,1.82912097698,3.00822021809,4.00559788982,4.78189130386,5.31006310943,5.57662527952,5.58220052812,5.34135395024,4.88164119232,4.24185475664,3.46950843517,2.61767560947,1.74137864782,0.893799140472,0.12262749957,-0.53311628825,-1.04548756838,-1.39901407415,-1.59095435791,-1.63040891303,-1.53640009472,-1.3351480016,-1.05685342287,-0.732347060457,-0.389972251739,-0.0530356756601,0.261910177118,0.545790814263,0.796700013264,1.01864542215,1.21955804118,1.4088685954,1.59500820838,1.78319510809,1.97382149848,2.16166282558,2.33601080167,2.48170102924,2.58088503347,2.61530089443,2.56873759107,2.4293712946,2.19167702208,1.85768033202,1.43740043696,0.948435027772,0.414735178814,-0.135295015152,-0.671172995953,-1.16294423785,-1.58376539424,-1.91222395972,-2.13419405132,-2.24408473798,-2.2454012048,-2.15060032547,-1.98027462794,-1.76173994255,-1.52713299445,-1.31114821983,-1.14856093777,-1.0716984804,-1.10803131751,-1.27805920115,-1.5936582128,-2.05702975821,-2.66035137785,-3.3861743613,-4.20854973229,-5.09479891534,-6.0077858297,-6.90850092224,-7.7587413498,-8.52366915247,-9.17405086051,-9.6880231914,-10.0522823946,-10.2626499592,-10.3240166544,-10.2497056939,-10.060323918,-9.78218964866,-9.44543993966,-9.08192969066,-8.72304120156,-8.39752631201,-8.12950587605,-7.93675359747,-7.82939161491,-7.8091196518,-7.86908252173,-7.99444714649,-8.16370741007,-8.35066496536,-8.52695360291,-8.66489556985,-8.74041416587,-8.73569129689,-8.64126131254,-8.45727750561,-8.19377177317,-7.86984023219,-7.51181179279,-7.15057505211,-6.81833583979,-6.5451422346,-6.3555398107,-6.26570591662,-6.28136091176,-6.39667338333,-6.59427555169,-6.84639624556,-7.11701357577,-7.36483703133,-7.5468554119,-7.62213682201,-7.5555427824,-7.32102226998,-6.90418347056,-6.30389950803,-5.53278592555,-4.61648725095,-3.59182070533,-2.5039375069,-1.402764057,-0.33906301479,0.639504351284,1.49193599016,2.18673695835,2.70381544281,3.0353007167,3.1852833577,3.16859660043,3.00885071737,2.73598736178,2.38363348922,1.98650911078,1.57809063053,1.18866599844,0.843853384157,0.563602575661,0.361663646831,0.245490366031,0.216541077868,0.270939626395,0.40045591332,0.593755139747,0.837845651642,1.11963024328,1.42744019061,1.75241224307,2.08956357214,2.43843373776,2.80319774586,3.19220732012,3.61698194455,4.09073804645,4.62660389381,5.23571003081,5.92536366045,6.69750786015,7.54763504946,8.46427449856,9.42911364202,10.4177507292,11.4010190929,12.3467762109,13.2220165009,13.9951459356,14.6382478971,15.129170977,15.4532783831,15.6047139416,15.5870619099,15.413309169,15.1050614474,14.6910210524,14.204800088,13.6822147182,13.1582739694,12.6641302008,12.224286834,11.8543534769,11.5595952389,11.3344448064,11.1630428145,11.0207588398,10.8765374777,10.6958254557,10.4437778218,10.0884213493,9.60347318201,8.97056752153,8.18072232019,7.23496834533,6.1441520226,4.92800106939,3.61360089402,2.23346539123,0.823396156353,-0.579689072838,-1.9398092347,-3.22374586067,-4.40257709353,-5.45289316753,-6.35769589685,-7.10700241212,-7.69817900531,-8.13602566113,-8.43261868528,-8.60690233825,-8.68400577038,-8.69425361886,-8.67184093607,-8.6531579028,-8.67477808123,-8.77116520106,-8.97220437979,-9.30071770915,-9.77017207212,-10.3828184909,-11.1285076305,-11.9843987071,-12.9157172203,-13.8776242049,-14.8181443897,-15.6819753512,-16.4148808542,-16.9682776595,-17.3035735906,-17.3958175235,-17.2362818158,-16.8337062327,-16.2140724411,-15.4189283808,-14.5024222137,-13.5273207217,-12.5603677655,-11.6673814848,-10.9084953182,-10.3339209039,-9.98055471308,-9.86967000705,-10.0058379505,-10.3771146283,-10.9564233554,-11.7039628532,-12.5703895151,-13.5004631314,-14.4368160904,-15.3235102566,-16.1090843971,-16.7488653654,-17.2064114222,-17.4540647248,-17.4726964673,-17.2508148115,-16.7832577296,-16.0697026468,-15.1131942114,-13.9188307953,-12.4926744769,-10.8408750115,-8.96894157939,-6.88106984346,-4.57944332849,-2.06347689757,0.67095275088,3.63215533267,6.83293920646,10.2903227594,14.0243785205,18.0560006128,22.4035016973,27.0781084795,32.0786143507,37.3856364265,42.9560822741,48.7185310564,54.570252787,60.3765156044,65.9726641453,71.1692045732,75.7598276189,79.5319736353,82.2792325208,83.8146164422,83.9835791756,82.6756065739,79.8332785168,75.4578995361,69.6110951289,62.4121437629,54.0312221966,44.6791404321,34.5944876446,24.0293605089,13.2349685352,2.44839066016,-8.11840431275,-18.2864422676,-27.914065649,-36.8976223957,-45.1688326958,-52.6894647158,-59.4441782481,-65.4325134635,-70.6610084615,-75.136334406,-78.8601601378,-81.8262241708,-84.0198275229,-85.4196912952,-86.0018706441,-85.745201229,-84.6375923005,-82.6823863163,-79.9039880928,-76.3520310918,-72.1034915879,-67.262372081,-61.9568340491,-56.3339402437,-50.552435922,-44.7742223551,-39.1553244245,-33.8372075696,-28.9392523878,-24.5530563264,-20.7390213267,-17.5254328341,-14.9099724905,-12.8633663142,-11.3346787076,-10.2576378147,-9.55732762903,-9.1566061274,-8.98169837596,-8.9665545564,-9.05573584092,-9.20577389405,-9.38512042575,-9.57294257796,-9.75711407246,-9.93179315033,-10.0949650432,-10.2462649366,-10.3853006407,-10.510581682,-10.619053729,-10.7061510987,-10.7662258654,-10.7931925745,-10.7812387032,-10.7254838849,-10.6225141204,-10.4707594213,-10.2707154976,-10.0250272518,-9.73845385959,-9.41772648696,-9.07129742832,-8.70897100428,-8.34140670533,-7.97949488749,-7.63362329805,-7.31287622877,-7.0242336213,-6.77185983263,-6.55658458335,-6.37567598135,-6.22298435231,-6.08949698096,-5.96429291998,-5.8358316291,-5.69345794555,-5.52896610054,-5.33804224029,-5.12140100033,-4.88544827991,-4.64233930342,-4.40935665389,-4.20760356999,-4.06008730069,-3.9893470075,-4.01485010903,-4.15042979579,-4.40205681068,-4.76622608846,-5.22919247416,-5.76721177546,-6.34783990997,-6.93222417831,-7.47820062914,-7.94390580336,-8.291535033,-8.49084517017,-8.52201431436,-8.37753539569,-8.06292780108,-7.59618825664,-7.00605022758,-6.329258898,-5.60717637301,-4.88209446281,-4.19364386611,-3.57565146546,-3.0537221751,-2.64372340365,-2.35124475838,-2.17200685289,-2.09311014844,-2.09495171106,-2.15359488279,-2.24335308459,-2.33934380783,-2.41978268887,-2.46782046455,-2.47277570592,-2.43067880706,-2.34411083059,-2.22138719462,-2.07519492154,-1.92083933503,-1.77428932625,-1.65022787034,-1.56031431775,-1.51184470839,-1.50695463136,-1.54244786019,-1.61025927517,-1.69848208865,-1.79281852623,-1.87826095089,-1.94078514251,-1.96884215869,-1.95446748275,-1.89387973204,-1.78750809769,-1.63945960261,-1.45650617129,-1.24673030765,-1.01801124908,-0.776556569781,-0.525684132317,-0.265034203522,0.00965756751505,0.306163869148,0.634762982867,1.00672756437,1.43247727064,1.91962629021,2.47119015155,3.08421452183,3.74904657185,4.44938920995,5.16317143976,5.86415263035,6.52407562996,7.11511211651,7.61231548846,7.99581486428,8.25254155172,8.37736183696,8.37357774813,8.25283125873,8.03449315589,7.74463104899,7.41463819656,7.07958051388,6.77630012332,6.5413132163,6.40856297613,6.40713067177,6.55905771284,6.87747240154,7.36523223463,8.01427614037,8.8058291166,9.71152054507,10.6953790459,11.7165655383,12.7326159386,13.7028971674,14.5919435722,15.3723406539,16.0268599383,16.5496192317,16.9461390543,17.2322790505,17.4321564984,17.5752604362,17.6930664915,17.8155171987,17.9677517957,18.1674451858,18.4230505253,18.7331406011,19.0869197227,19.4658430102,19.8461487387,20.2019979143,20.5088385452,20.7465816681,20.9021978598,20.9714155251,20.9593174536,20.8797753475,20.753813682,20.6071327442,20.4671260775,20.3597852881,20.3068880815,20.3238141693,20.4182364717,20.5898066246,20.8308139296,21.1276671088,21.4629476728,21.8177251904,22.1738126354,22.5156708183,22.8317360985,23.1150342839,23.363044463,23.5768778868,23.7599278879,23.9162174288,24.0487128921,24.1578794243,24.240720681,24.2904757719,24.2970472233,24.2481211432,24.1308333306,23.9337507525,23.6488895176,23.2734839596,22.8112554891,22.2729975854,21.6763836794,21.0450041391,20.4067330111,19.7916022655,19.2294122516,18.7473273562,18.3676953117,18.1062914745,17.971133593,17.9619479226,18.0703030493,18.2803697694,18.57021699,18.9135159595,19.28149884,19.6450036471,19.9764364487,20.2514925859,20.4504998059,20.5592765449,20.569438627,20.4781379612,20.2872758566,20.0022961098,19.6307203346,19.1806295781,18.6593120797,18.0722802906,17.4228097531,16.7120738541,15.9398539045,15.10570936,14.2104143947,13.2574174694,12.2540678279,11.2123792262,10.149163663,9.08545870512,8.04527875866,7.05382709666,6.13539363329,5.31121714891,4.59759953329,4.00452206855,3.53493756979,3.18481204245,2.94388324875,2.79700856479,2.72590465706,2.71104485746,2.73347787478,2.77635935214,2.82603879376,2.87261095456,2.90991479574,2.93503520831,2.94742292809,2.94778815116,2.93693915159,2.91472949269,2.87925096387,2.82637090221,2.74966870108,2.64078211261,2.49013237841,2.28795967312,2.02556767978,1.69664955952,1.29854918777,0.833304232134,0.308324835372,-0.263413746547,-0.863743235603,-1.47025883653,-2.05781089638,-2.60041231714,-3.07338038523,-3.45548665916,-3.73086839717,-3.89046660792,-3.93280252563,-3.8639825655,-3.69692028593,-3.44986644522,-3.14442838489,-2.80332424904,-2.44814740625,-2.09740885273,-1.76508268331,-1.45980884601,-1.18481859816,-0.938553395439,-0.715859765585,-0.509572673163,-0.312257664752,-0.11787392606,0.0768526418409,0.271500359675,0.46154542091,0.638478562674,0.79037905232,0.902837789593,0.960106309773,0.946357543115,0.846968631294,0.649764786533,0.346185313173,-0.0676593329492,-0.590079725982,-1.21311124334,-1.92211710063,-2.69579458918,-3.50668489047,-4.32225744422,-5.10658472512,-5.82254848683,-6.43443538412,-6.91070339316,-7.22664588558,-7.36665897466,-7.32583512307,-7.11066149847,-6.7386901115,-6.23715922228,-5.6406688463,-4.98813147862,-4.31931550727,-3.67135800594,-3.07563481517,-2.55533492159,-2.12399753749,-1.78514686989,-1.53302023238,-1.35425061747,-1.23025373791,-1.13999589321,-1.0627910891,-0.980795501585,-0.880929918533,-0.756055449927,-0.605339018057,-0.43385482462,-0.251559179566,-0.0718368935951,0.090156970585,0.219144369849,0.301180970275
4,-5.6406688463,-4.98813147862,-4.31931550727,-3.67135800594,-3.07563481517,-2.55533492159,-2.12399753749,-1.78514686989,-1.53302023238,-1.35425061747,-1.23025373791,-1.13999589321,-1.0627910891,-0.980795501585,-0.880929918533,-0.756055449927,-0.605339018057,-0.43385482462,-0.251559179566,-0.0718368935951,0.090156970585,0.219144369849,0.301180970275,0.324797736658,0.281766869021,0.16749399973,-0.0189100091057,-0.274791558841,-0.594255065684,-0.96851823958,-1.3862671183,-1.83399276033,-2.29632616623,-2.75641256157,-3.19637567167,-3.59791569189,-3.94306333131,-4.21508135256,-4.39947101293,-4.48501078653,-4.46473448028,-4.33674803928,-4.10478813381,-3.77843845424,-3.37293977382,-2.90855724379,-2.40950350162,-1.90245823352,-1.4147710028,-0.972479405311,-0.598311991879,-0.309866988876,-0.118156729312,-0.0266804593736,-0.0311366527878,-0.119817317753,-0.274652004384,-0.472800677312,-0.688643138486,-0.895984643646,-1.07029267817,-1.19079225069,-1.24226710839,-1.21643436419,-1.11277853273,-0.938753067794,-0.709291657134,-0.445623585464,-0.173455759909,0.0793411431798,0.285337072229,0.420183506882,0.465015464638,0.408349416809,0.247254970051,-0.0123483015295,-0.356320327855,-0.763798200379,-1.20939606593,-1.66585045295,-2.10679481045,-2.50933027938,-2.85609054366,-3.13657344314,-3.3476187381,-3.49303167465,-3.5824654251,-3.62976417418,-3.65102063409,-3.66261257788,-3.67945534486,-3.71364993771,-3.77363170809,-3.86384604274,-3.98490701905,-4.13414224848,-4.30639781288,-4.49497208286,-4.69256192524,-4.89213132733,-5.08764161972,-5.27460676938,-5.45045312842,-5.61467187807,-5.76875895983,-5.91594659429,-6.06074485984,-6.20832973541,-6.36383145349,-6.53158975483,-6.71444819528,-6.91315779415,-7.12595233218,-7.34834516712,-7.57318172934,-7.79096341844,-7.99043751049,-8.15942399183,-8.2858248006,-8.35873609364,-8.36956386891,-8.31303248703,-8.18797828773,-7.99783732564,-7.75076402105,-7.45935072694,-7.1399520566,-6.81164992216,-6.49492493219,-6.21012636373,-5.975854842,-5.80738731443,-5.7152813453,-5.70429373529,-5.77273520398,-5.91235649286,-6.10882103603,-6.34276711593,-6.59140282199,-6.83051667199,-7.0367325049,-7.18979605052,-7.27465876575,-7.28312748379,-7.21487933531,-7.07769962553,-6.88688063101,-6.66381245665,-6.43389162535,-6.22395644719,-6.05951833471,-5.96208554538,-5.9468661059,-6.02109271224,-6.18314281469,-6.42254253496,-6.72085296315,-7.05334949497,-7.39132638943,-7.70479660812,-7.96531703443,-8.14865522596,-8.23702785385,-8.22068300603,-8.09866625972,-7.87869819605,-7.57618938261,-7.21251545058,-6.81275657837,-6.40316091794,-6.00861262194,-5.65037018854,-5.34429415645,-5.09971430245,-4.91900783123,-4.79788393254,-4.72630587157,-4.68993395816,-4.67194102882,-4.6550334175,-4.62350141375,-4.5651219164,-4.47274245234,-4.34539181354,-4.18879096251,-4.01518081816,-3.84244158154,-3.69254883011,-3.58948803444,-3.55682091494,-3.61515175806,-3.77976819127,-4.05872181763,-4.45156852961,-4.9489119092,-5.53279706105,-6.17790105201,-6.85337513283,-7.52512635875,-8.15829080218,-8.71964996302,-9.17977312887,-9.51472382174,-9.70723790875,-9.74735319658,-9.63253467957,-9.36738744338,-8.96307484652,-8.43656063814,-7.80977170112,-7.10873944174,-6.36273309452,-5.60335973756,-4.86358401669,-4.17662086403,-3.57467600071,-3.08754511082,-2.74112320522,-2.55591091622,-2.5456275992,-2.71604978865,-3.06418849613,-3.57790189114,-4.23601282778,-5.00896522179,-5.86001209417,-6.74688539123,-7.62385862273,-8.4440821301,-9.16204915462,-9.73603867685,-10.1303781927,-10.3173772222,-10.2788015736,-10.0067887959,-9.50414427804,-8.78400128334,-7.8688733016,-6.78917092795,-5.58129594939,-4.2854595432,-2.94339508958,-1.59614399128,-0.28208122831,0.964684520383,2.11545024844,3.14757077356,4.04465738305,4.79640789711,5.39818532583,5.85046935634,6.15828650873,6.33068721058,6.38029218755,6.32288869233,6.17702930159,5.96357770815,5.70515663794,5.42547685413,5.14855410736,4.89784401525,4.69533817895,4.560668918,4.5102693194,4.55663439526,4.70772977872,4.96659551672,5.33119192053,5.79452986781,6.34511726857,6.96773451936,7.64452332572,8.35633600478,9.08425024686,9.81111450048,10.5229606305,11.2101117331,11.867829567,12.4963889871,13.1005317119,13.6883296302,14.2695665813,14.8538145188,15.4484245534,16.0566691402,16.6762576223,17.298407297,17.9075929451,18.4820271606,18.9948495659,19.4159322445,19.7141476068,19.8598978451,19.827674742,19.5984066631,19.1613582191,18.5153795322,17.6693566985,16.6417899535,15.4595148481,14.155675481,12.7671466999,11.331672114,9.8850250879,8.45850200328,7.07701820763,5.75800155089,4.51117660181,3.33921849348,2.23914415686,1.20421559517,0.226068507331,-0.70323975341,-1.58954206295,-2.43544372267,-3.23988762397,-3.99840631206,-4.70396412883,-5.34821525066,-5.92295919919,-6.4215677254,-6.84018311143,-7.17853982707,-7.44032774348,-7.63308399728,-7.76766252844,-7.85737875675,-7.91695789963,-7.96142720486,-8.00508504866,-8.06065573742,-8.13870220231,-8.24732526592,-8.39213404239,-8.57643324985,-8.80154487083,-9.06716765126,-9.37168069492,-9.71231702668,-10.0851672102,-10.4850172606,-10.9050723092,-11.336659266,-11.7690291576,-12.1893849483,-12.5832384549,-12.9351506474,-13.2298402663,-13.4535693984,-13.5956471682,-13.6498480688,-13.6155288238,-13.4982499276,-13.3097621574,-13.067296563,-12.7921873906,-12.5079478636,-12.2379956992,-12.0032778861,-11.8200653402,-11.6981745266,-11.6398262429,-11.6392770457,-11.6832656148,-11.7522169511,-11.8220550378,-11.8664017052,-11.8588948778,-11.7753477964,-11.5954924316,-11.3041015271,-10.8913576663,-10.3524250486,-9.68626952883,-8.89385456293,-7.97590685749,-6.93049078419,-5.75065331438,-4.4224024166,-2.92326449629,-1.22163428585,0.722913165674,2.95823262956,5.53708970654,8.51353779067,11.9383038411,15.8533916589,20.2862087511,25.2436124286,30.7063411295,36.6243365226,42.913461438,49.4540729668,56.091818734,62.6408913747,68.8898092622,74.6096007243,79.5640663092,83.5215931775,86.267814447,87.6182642778,87.4300972847,85.6119359127,82.1309920581,77.0167803575,70.3609908364,62.3133987963,53.0740318992,42.8821535021,32.0029193009,20.712785436,9.28486271292,-2.02459174489,-12.9874785181,-23.4121220313,-33.1479836396,-42.0866763233,-50.1595162468,-57.3321942084,-63.5974241979,-68.9665946934,-73.4614916337,-77.1070764629,-79.9261012958,-81.9360552898,-83.1486034061,-83.5713480826,-83.2114593901,-82.080511553,-80.1997492143,-77.6049877848,-74.3504219353,-70.5107622846,-66.1813249339,-61.4759390691,-56.5227885628,-51.4585379151,-46.4212859203,-41.5430203142,-36.942298268,-32.7178466616,-28.9436701956,-25.6660910943,-22.9029423278,-20.6449194761,-18.8588872691,-17.492756924,-16.4814177791,-15.7531339558,-15.2358090422,-14.8625757645,-14.576272078,-14.3325036498,-14.1011475674,-13.8663071413,-13.6248695407,-13.3839360681,-13.1574811379,-12.9626452829,-12.8160774722,-12.7307130755,-12.7133089156,-12.762961814,-12.8707206449,-13.0202757969,-13.1895877012,-13.3532115478,-13.4850004823,-13.5608333441,-13.5610204485,-13.472092573,-13.2877690332,-13.0090193699,-12.6432635634,-12.2028785039,-11.7032739484,-11.1608530493,-10.5911718554,-10.0075597219,-9.42036863633,-8.83690175198,-8.26195141654,-7.69877560074,-7.15027509896,-6.62011129035,-6.11352707989,-5.63769632489,-5.20151792529,-4.81487357944,-4.48746497217,-4.22742070341,-4.03990423789,-3.92595636068,-3.88176996718,-3.8985280115,-3.96284838719,-4.0577871273,-4.16426958378,-4.26276260259,-4.33497854645,-4.36541574148,-4.34258241456,-4.25980972265,-4.11562072562,-3.9136760876,-3.66235806161,-3.37407909554,-3.06440942293,-2.75111071371,-2.45314426374,-2.18969809776,-1.97925366773,-1.83869441023,-1.78244893039,-1.82166336261,-1.96341087006,-2.20996872253,-2.5582192192,-2.99925208529,-3.51825535844,-4.09477464,-4.70339645584,-5.31487332052,-5.89766116933,-6.41979071741,-6.85094978211,-7.16461906121,-7.34008257534,-7.36412772521,-7.23226026925,-6.94928853599,-6.52918033584,-5.99416399704,-5.37312564658,-4.69943747826,-4.0084229958,-3.33471260936,-2.70975765097,-2.15974936009,-1.7041344182,-1.35483906394,-1.11622294361,-0.985695987448,-0.954858998067,-1.01097962657,-1.13859416316,-1.32103288348,-1.54170081251,-1.78500217537,-2.03686723384,-2.28491254902,-2.5183260773,-2.72760492613,-2.90427954725,-3.04073429558,-3.13018807802,-3.16684250757,-3.14615274884,-3.0651408334,-2.92266050288,-2.71953699193,-2.45853709916,-2.14416215722,-1.7822878654,-1.37969493976,-0.943543910077,-0.48084958548,0.00199207046077,0.499579951621,1.00775619616,1.52371547399,2.04598324198,2.57428563617,3.10933952749,3.65258767411,4.20589328736,4.77119565917,5.35012026154,5.94353893736,6.55109120619,7.17070368825,7.79817336516,8.42690139084,9.0478681021,9.64992177598,10.2204144941,10.7461648578,11.214670025,11.6154408567,11.9413040953,12.1895095888,12.3624977473,12.4682176229,12.5199328878,12.5355058161,12.5362034393,12.5451212548,12.5853640111,12.6781552247,12.841061955,13.0865149782,13.4207760186,13.8434560806,14.3476284925,14.9205155291,15.5446677069,16.1995083247,16.8630880307,17.5138867774,18.1325112474,18.7031595676,19.2147555145,19.6616858335,20.0441033992,20.3677850841,20.6435577656,20.8863308035,21.1137993981,21.3449093046,21.5981963544,21.8901301564,22.2335964151,22.6366441798,23.1016031857,23.6246450734,24.1958252,24.7996038285,25.4158104854,26.0209851647,26.5900048298,27.0978824774,27.521608887,27.8418961919,28.0446812069,28.1222584107,28.0739388927,27.9061709844,27.6321067172,27.2706497999,26.8450688683,26.3812984885,25.9060758594,25.4450714997,25.021167086,24.6530140918,24.3539755853,24.1315144048,23.9870482941,23.9162508757,23.9097413625,23.9540804665,24.0329780552,24.1286187085,24.22301916,24.2993397914,24.3430767382,24.3430628608,24.2922096923,24.1879329703,24.0322227513,23.8313436666,23.5951788376,23.3362598445,23.0685529213,22.8060961759,22.5616016263,22.3451465148,22.1630785023,22.0172476984,21.904654682,21.817568242,21.7441214822,21.6693441983,21.5765389059,21.4488643154,21.270959817,21.0304327526,20.7190401472,20.3334285536,19.8753466533,19.3513087304,18.7717546163,18.1498144114,17.499836244,16.8358658237,16.1702725577,15.5126958704,14.8694380729,14.2433625096,13.6342783832,13.0397201934,12.4559734293,11.8791688929,11.3062700443,10.7358088817,10.1682785247,9.60615390166,9.05357411347,8.51577113908,7.99836236532,7.50663485866,7.04493663072,6.61625776046,6.22203948368,5.86220182784,5.53533928646,5.2390063337,4.97000425116,4.72458899721,4.49854545878,4.28711241842,4.08478772668,3.88508446854,3.68033578944,3.46165076838,3.21910402305,2.94220132316,2.62061067232,2.24509383152,1.80852810576,1.30688153483,0.740001588261,0.112097920824,-0.568161459072,-1.28797218345,-2.03111407725,-2.7790039389,-3.51197703977,-4.21067056532,-4.85737592934,-5.43723764281,-5.93920060224,-6.35663948114,-6.6876376731,-6.93491487976,-7.1054298455,-7.20970714273,-7.26095392942,-7.27404387786,-7.26445103083,-7.24721656292,-7.23602606778,-7.24246266075,-7.27548073544,-7.34111800857,-7.44243390051,-7.57963579035,-7.75033558978,-7.94987006245,-8.17162104111,-8.40728698826,-8.6470843049,-8.87989176633,-9.09338775468,-9.27425860838,-9.40856829873,-9.48236851777,-9.48259312589,-9.39822642815,-9.22166983339,-8.95016727148,-8.58709801151,-8.14291702917,-7.63552621536,-7.08989911876,-6.53685743421,-6.01100343318,-5.54793673698,-5.18100701987,-4.93795294377,-4.83783074599,-4.88863148658,-5.08592400433,-5.41275077504,-5.84086112688,-6.33320792416,-6.84747813147,-7.34029312057,-7.77161880801,-8.10888334293,-8.33031975525,-8.42713274398,-8.40422326463,-8.27937463788,-8.08098777078,-7.8446274979,-7.60878478067,-7.41035162597,-7.28033432874,-7.24029228546,-7.29989083967,-7.45581302141,-7.69210750711,-7.98188088891,-8.29009239239,-8.57709649447,-8.80251616199,-8.92902160202,-8.92563287271,-8.77024900161
4,-7.23602606778,-7.24246266075,-7.27548073544,-7.34111800857,-7.44243390051,-7.57963579035,-7.75033558978,-7.94987006245,-8.17162104111,-8.40728698826,-8.6470843049,-8.87989176633,-9.09338775468,-9.27425860838,-9.40856829873,-9.48236851777,-9.48259312589,-9.39822642815,-9.22166983339,-8.95016727148,-8.58709801151,-8.14291702917,-7.63552621536,-7.08989911876,-6.53685743421,-6.01100343318,-5.54793673698,-5.18100701987,-4.93795294377,-4.83783074599,-4.88863148658,-5.08592400433,-5.41275077504,-5.84086112688,-6.33320792416,-6.84747813147,-7.34029312057,-7.77161880801,-8.10888334293,-8.33031975525,-8.42713274398,-8.40422326463,-8.27937463788,-8.08098777078,-7.8446274979,-7.60878478067,-7.41035162597,-7.28033432874,-7.24029228546,-7.29989083967,-7.45581302141,-7.69210750711,-7.98188088891,-8.29009239239,-8.57709649447,-8.80251616199,-8.92902160202,-8.92563287271,-8.77024900161,-8.45121727299,-7.967878913,-7.33014656635,-6.557270423,-5.67602096738,-4.71854827576,-3.72016828751,-2.71728119253,-1.7455585371,-0.838459998955,-0.0260737663224,0.6657721981,1.21620159194,1.60985336759,1.83736283003,1.89576856793,1.78881192046,1.5270585794,1.12774860085,0.614279350731,0.015249978185,-0.636955211385,-1.30800065408,-1.96373463041,-2.57244585806,-3.10702036653,-3.5467677039,-3.87871111882,-4.0981942632,-4.20873794455,-4.22117054659,-4.15213937432,-4.02217456665,-3.85351561763,-3.66792257618,-3.48468320064,-3.31899813341,-3.18088226487,-3.07466546214,-2.99911449967,-2.94813654567,-2.91196938675,-2.8787198708,-2.83608305703,-2.77306201351,-2.68151268938,-2.55735881929,-2.40135524474,-2.21931987697,-2.02180117447,-1.82319820012,-1.64040393335,-1.49109756684,-1.3918620637,-1.35633976162,-1.39365087697,-1.50727980293,-1.69458045313,-1.9469701572,-2.25078389554,-2.58866335109,-2.94127567473,-3.28910978752,-3.61409280324,-3.90080763608,-4.13716889081,-4.31451464118,-4.42717921006,-4.47170755876,-4.44593770548,-4.34820034766,-4.17685829337,-3.9303353707,-3.60767806161,-3.20957419486,-2.73964600978,-2.2057612239,-1.62107870709,-1.00456806356,-0.380809013844,0.221024615961,0.768974541256,1.23075980713,1.57664216039,1.7823673772,1.83181785388,1.71902642722,1.44926922563,1.03906751685,0.515067365779,-0.0880910207511,-0.730677675626,-1.37122615281,-1.96996930812,-2.49199744674,-2.90982664031,-3.20514427728,-3.36959777985,-3.40459939787,-3.32022461823,-3.13337503213,-2.86545078934,-2.53982578063,-2.17943321033,-1.80474467465,-1.4323619644,-1.07434576154,-0.738295378949,-0.428088345326,-0.145105294549,0.110284911383,0.337219893402,0.533042104945,0.692385298779,0.806779760048,0.864845130889,0.853073841077,0.757141065875,0.563612070205,0.261860282755,-0.154032424659,-0.68363888956,-1.31904448652,-2.04438382275,-2.83616608243,-3.66440713334,-4.49449014064,-5.28958835263,-6.01341548807,-6.63302911154,-7.12140451808,-7.45952056042,-7.63775084629,-7.65642807515,-7.52553840747,-7.26359672432,-6.89584056982,-6.45194883833,-5.96353210246,-5.46165068301,-4.97459506737,-4.52611658452,-4.13423272686,-3.8106603582,-3.56085992678,-3.38461242762,-3.27700449228,-3.22966948363,-3.23212462134,-3.273054143,-3.34141327091,-3.42726407117,-3.52229842313,-3.62004978296,-3.71583673591,-3.80651007995,-3.89008739337,-3.96535584968,-4.03151017456,-4.08787313523,-4.13372401848,-4.16823763367,-4.19051355081,-4.19965462215,-4.19483897775,-4.17532520376,-4.14034005128,-4.08882268462,-4.0190361107,-3.92809830345,-3.81152369851,-3.66289117124,-3.47376032248,-3.2339401931,-2.93217358937,-2.55724029781,-2.0994118031,-1.55211975792,-0.91364225022,-0.188576175763,0.611142286198,1.46588108836,2.34877416735,3.22707133375,4.06434034304,4.82337023472,5.46951566947,5.97413616106,6.31773809074,6.49243184108,6.50337394509,6.36896919237,6.11974723474,5.79598397346,5.44428870767,5.11350317354,4.85034178008,4.69523359425,4.67880313224,4.81935233718,5.12158915168,5.57670246858,6.16372679078,6.85199312922,7.60434591576,8.38073576859,9.14178418777,9.85195798504,10.4820777426,11.0109982331,11.426419521,11.7248967722,11.9111997409,11.9972201269,12.0006339202,11.9435006652,11.8509315317,11.7498950993,11.6681663202,11.6333718507,11.6720533369,11.8086653968,12.0644480573,12.4561594173,12.9947130577,13.6838233599,14.518808385,15.4857253384,16.561012444,17.7117817326,18.8968525825,20.0685425267,21.1751486145,22.1639685221,22.9846346949,23.5924767865,23.9515975169,24.0373528061,23.837971728,23.3551321647,22.6034149513,21.6086798295,20.4055257162,19.0341005963,17.5365998644,15.9538271926,14.3221847239,12.6714100132,11.0232904952,9.39147123232,7.78234050794,6.1968452463,4.63297042315,3.08852947848,1.56386929198,0.0641008397237,-1.39947500704,-2.80897531571,-4.14067275801,-5.3668118816,-6.45830843987,-7.38801350757,-8.13413982897,-8.68341433544,-9.03354309487,-9.19464968032,-9.18946444519,-9.05218571599,-8.82608836419,-8.56010424405,-8.30472585461,-8.10767267742,-8.00979497171,-8.0416647034,-8.22121876294,-8.55268565252,-9.02686146885,-9.62262878558,-10.3094604011,-11.050543829,-11.8061186832,-12.536642468,-13.2054821452,-13.7809492212,-14.2376281026,-14.557063786,-14.7279542155,-14.7460241156,-14.613741985,-14.3399913374,-13.9397381337,-13.4336670196,-12.8477056601,-12.2123306865,-11.561555602,-10.9315383801,-10.3588061647,-9.87816427484,-9.52042339653,-9.31013082272,-9.26352068912,-9.38690010007,-9.67566208747,-10.1140646939,-10.6758431766,-11.3256373696,-12.021128945,-12.7157045906,-13.3614003394,-13.9118461858,-14.3249229542,-14.5648666394,-14.6036071614,-14.4212032835,-14.005325728,-13.3498377796,-12.452618327,-11.3128583205,-9.9281307483,-8.29158005651,-6.38959433872,-4.20030923993,-1.69324467806,1.16970607789,4.43182862645,8.13771306655,12.3281373103,17.0340423213,22.2700634243,28.0281745764,34.2720452391,40.9326963662,47.9059743983,55.0522468678,62.1985705424,69.1434054296,75.6637587995,81.5244553432,86.4890538776,90.3317783028,92.8497124058,93.8744372665,93.2822785135,91.0023869529,87.0220021983,81.3884388862,74.2075749428,65.6388908475,55.8873835266,45.1929325456,33.8179050184,22.0339280889,10.1088185302,-1.70537038967,-13.1823439773,-24.1289618414,-34.3896529047,-43.847760228,-52.4240167263,-60.0726089825,-66.7754806385,-72.5356415965,-77.3702783242,-81.3044083053,-84.3657002947,-86.5809084164,-87.9741615666,-88.5671302334,-88.3808806952,-87.4390404146,-85.7717547196,-83.4198264816,-80.4384058354,-76.899638952,-72.8937902109,-68.5285112681,-63.9261283775,-59.2190366991,-54.5435058043,-50.0323921377,-45.8074005568,-41.9716198902,-38.6030647844,-35.7498854164,-33.4277646986,-31.6198226974,-30.279107994,-29.3334982803,-28.6925853266,-28.2559127151,-27.9217948763,-27.5958896893,-27.1987286023,-26.6715217853,-25.9797376587,-25.1141873991,-24.0896024923,-22.9409504918,-21.7179627927,-20.4785221299,-19.2816560246,-18.1808942189,-17.2186736579,-16.4223263423,-15.8019858168,-15.3505249144,-15.0454178323,-14.8522256867,-14.7292516394,-14.6328097085,-14.5225075392,-14.3659613987,-14.1424397369,-13.8450611853,-13.481339009,-13.0720480866,-12.6485724088,-12.2490514872,-11.9137659847,-11.6802737932,-11.5788213992,-11.6285124197,-11.8346230273,-12.1873251285,-12.6619281361,-13.2205951148,-13.8153439381,-14.3920217035,-14.8948518211,-15.2711066661,-15.4754600542,-15.4736233916,-15.2449608303,-14.7838993922,-14.1000827809,-13.2173443115,-12.1716791261,-11.0084678037,-9.77923831607,-8.53825288622,-7.33917717848,-6.23204085109,-5.26064159926,-4.46048949301,-3.85734204661,-3.46634654866,-3.29178420275,-3.32739661609,-3.55726302335,-3.95718016067,-4.49647225245,-5.14012710098,-5.85112144386,-6.59277247767,-7.33093956986,-8.03590453259,-8.68378113857,-9.25734294358,-9.74620914554,-10.1463865371,-10.4592271493,-10.6899215676,-10.845701944,-10.933969897,-10.9605855618,-10.9285485493,-10.8372657364,-10.6825352694,-10.4572869152,-10.1530168858,-9.76175461977,-9.27831422574,-8.70252672902,-8.04112961226,-7.30901200302,-6.52957721206,-5.73408355375,-4.95994790024,-4.24812795312,-3.63982051976,-3.17280712917,-2.87783226288,-2.77540694719,-2.87339225651,-3.16563977616,-3.63185863092,-4.23875232895,-4.94233625568,-5.69122272753,-6.4305596538,-7.10624311397,-7.6690009846,-8.07796600865,-8.3034186567,-8.32847411575,-8.14960150685,-7.77598319475,-7.227834624,-6.5338995283,-5.72840386776,-4.84779008896,-3.92755943815,-2.99952393443,-2.08971314506,-1.21709931692,-0.393206731533,0.377430924303,1.09609571148,1.76819966054,2.40134389706,3.00339485756,3.58083018356,4.13755357682,4.67429941126,5.18865747296,5.67566047612,6.12880482282,6.54132749535,6.90754323624,7.22405530671,7.49068461148,7.71100800019,7.89244972835,8.04592507401,8.18508819576,8.32528332831,8.48233342686,8.67131661083,8.90547353265,9.19535838823,9.54829856833,9.96817256351,10.4554632429,11.0075033362,11.6188089326,12.2813994186,12.9850290743,13.7173017428,14.4636949001,15.2075688249,15.9302675991,16.611424767,17.2295683829,17.7630829513,18.1915352418,18.4973126627,18.6674628636,18.6955685253,18.5834491135,18.3424583207,17.994147854,17.5701000772,17.1107966648,16.6634862511,16.2791327375,16.0086524033,15.8987629997,15.9878522064,16.3023105059,16.8537553996,17.6374983806,18.6324797496,19.8027335449,21.1002664579,22.4690652191,23.8498106984,25.1847932748,26.4225045639,27.5214276728,28.4526545937,29.2011098395,29.7653330795,30.1559470541,30.3930877569,30.5031824116,30.5155133048,30.4589959322,30.3595314499,30.2381792181,30.1102560273,29.9853282575,29.8679434922,29.7588647236,29.6565310556,29.5584737482,29.4624596906,29.3672066879,29.2726049169,29.1794733688,29.0889647944,29.0017943154,28.917495452,28.8338977814,28.7469738462,28.6511272031,28.5399028564,28.4070135244,28.2475070005,28.0588630491,27.8418079003,27.6006695824,27.3431624219,27.0795742594,26.8214219853,26.5797251698,26.3631109939,26.1759979772,26.0171079139,25.8785261312,25.7454737361,25.5968779043,25.4067355202,25.1461721121,24.7860141072,24.2996289423,23.665751863,22.8710131478,21.9119040367,20.7959701546,19.5420920995,18.1797970523,16.7476347808,15.2907380202,13.8577633111,12.4974673096,11.2552097764,10.1696837159,9.27015396592,8.57444001807,8.08781217984,7.80288886161,7.70053294479,7.75165283081,7.91972654726,8.16379578289,8.44163258312,8.71277313709,8.94114271186,9.0970586651,9.15848459263,9.11150467003,8.95007871795,8.67521262097,8.29372654646,7.81682148772,7.25863508219,6.63494635827,5.96214309708,5.25651126816,4.53384971337,3.80936214896,3.09774021858,2.41333087655,1.77027941656,1.18255287554,0.663773009146,0.226819873888,-0.11679651852,-0.357760569051,-0.489898194649,-0.511140860145,-0.424377621801,-0.238057530487,0.0335853548862,0.370781651772,0.748998921107,1.14022119787,1.51465207599,1.84269507141,2.09701938674,2.25449920559,2.29782479658,2.21662364099,2.00799330295,1.6764227134,1.23314965922,0.695056341619,0.0832352646079,-0.578634584337,-1.26597014685,-1.95491187756,-2.62380318706,-3.25444719187,-3.83308243947,-4.35103321421,-4.80500235821,-5.19698636798,-5.53380599973,-5.82626356932,-6.08796226524,-6.33385199191,-6.57859691726,-6.83488759837,-7.11184112631,-7.41364210495,-7.73857159009,-8.07854782757,-8.41926204765,-8.74093844923,-9.01968623768,-9.22935064221,-9.34371642196,-9.33887755698,-9.19556502415,-8.9012229724,-8.45164183505,-7.85199215333,-7.11715086801,-6.2712679453,-5.34658115434,-4.38154678533,-3.41841051046,-2.50039178839,-1.66869341734,-0.959571546476,-0.401707883138,-0.0141131037684,0.195242294509,0.229925764441,0.104594487195,-0.156391876084,-0.521203285787,-0.953436915971,-1.41542575299,-1.87164694303,-2.29188851802,-2.65383716205,-2.94479294857,-3.162300127,-3.31360019592,-3.41395163447,-3.48400169455,-3.54652043222,-3.62289860876,-3.72985555302,-3.87679120044,-4.06414524305,-4.2830012142,-4.51600953659,-4.7395240736,-4.92667835697
4,2.25449920559,2.29782479658,2.21662364099,2.00799330295,1.6764227134,1.23314965922,0.695056341619,0.0832352646079,-0.578634584337,-1.26597014685,-1.95491187756,-2.62380318706,-3.25444719187,-3.83308243947,-4.35103321421,-4.80500235821,-5.19698636798,-5.53380599973,-5.82626356932,-6.08796226524,-6.33385199191,-6.57859691726,-6.83488759837,-7.11184112631,-7.41364210495,-7.73857159009,-8.07854782757,-8.41926204765,-8.74093844923,-9.01968623768,-9.22935064221,-9.34371642196,-9.33887755698,-9.19556502415,-8.9012229724,-8.45164183505,-7.85199215333,-7.11715086801,-6.2712679453,-5.34658115434,-4.38154678533,-3.41841051046,-2.50039178839,-1.66869341734,-0.959571546476,-0.401707883138,-0.0141131037684,0.195242294509,0.229925764441,0.104594487195,-0.156391876084,-0.521203285787,-0.953436915971,-1.41542575299,-1.87164694303,-2.29188851802,-2.65383716205,-2.94479294857,-3.162300127,-3.31360019592,-3.41395163447,-3.48400169455,-3.54652043222,-3.62289860876,-3.72985555302,-3.87679120044,-4.06414524305,-4.2830012142,-4.51600953659,-4.7395240736,-4.92667835697,-5.05099619346,-5.09005711706,-5.028731375,-4.86156104537,-4.59398030009,-4.24221719397,-3.83187890144,-3.39537373618,-2.96845393326,-2.5862637003,-2.27933881915,-2.07001902073,-1.96969743234,-1.97724369308,-2.07880740371,-2.24905147606,-2.45369981932,-2.65313107392,-2.80662876163,-2.8768233371,-2.83384233019,-2.65872280691,-2.34572951103,-1.90334886195,-1.3538755086,-0.731655578156,-0.0801827153138,0.551652627511,1.11379049191,1.55930262932,1.84836944705,1.95157503565,1.85223697371,1.54758984464,1.0487605912,0.379595503204,-0.42549216604,-1.32440083119,-2.27064142643,-3.21674123145,-4.11744913723,-4.93248590453,-5.62864953056,-6.18116769652,-6.57427827584,-6.80110439282,-6.86296101188,-6.76827540584,-6.53131745146,-6.17091636536,-5.70929379023,-5.17108032871,-4.58251742256,-3.97079170612,-3.36341448612,-2.78755067326,-2.26922030639,-1.83233736932,-1.49760563649,-1.28134753681,-1.19438717575,-1.24113333614,-1.41900779189,-1.71833845195,-2.12278906495,-2.61033373095,-3.15471435274,-3.72725374183,-4.29884818954,-4.84194033039,-5.33228027644,-5.7503181169,-6.08212631808,-6.31981551852,-6.46147026604,-6.51068237528,-6.47579151289,-6.36895168538,-6.20512940661,-6.00111038808,-5.77455627708,-5.54312139104,-5.32361903242,-5.13122153578,-4.97868800134,-4.87563567636,-4.82789847127,-4.8370395859,-4.90009510787,-5.00961610594,-5.15404914195,-5.31845633789,-5.48553599967,-5.6368718068,-5.75431712619,-5.82141101118,-5.82472107228,-5.75501270907,-5.60815288644,-5.38567021344,-5.09491292932,-4.74877372643,-4.36498498788,-3.96502740833,-3.57273386688,-3.21270197705,-2.90864654249,-2.68182371102,-2.54964306901,-2.52455761547,-2.61329164098,-2.8164389575,-3.12844163084,-3.53794214207,-4.0284873565,-4.57954786834,-5.16779942459,-5.76859455512,-6.35753455156,-6.9120377592,-7.4127927469,-7.84498641387,-8.19920864085,-8.47195695244,-8.6656961115,-8.78846672329,-8.85308032601,-8.87598075607,-8.87588601197,-8.87234456091,-8.88434010348,-8.92905800781,-9.02088863944,-9.17069636829,-9.38534013037,-9.66740354016,-10.0150861892,-10.422221802,-10.8784154901,-11.3693205368,-11.8770950189,-12.3810836721,-12.8587583864,-13.2869228231,-13.6431467512,-13.9073496235,-14.0634078138,-14.1006238432,-14.0148768392,-13.8092783406,-13.4941909608,-13.086529823,-12.6083529226,-12.0848455159,-11.5418996105,-11.0035652304,-10.4896895805,-10.0140530287,-9.58325477187,-9.19650335111,-8.84634299179,-8.52021589204,-8.20264382526,-7.87772779875,-7.53162428552,-7.15466525634,-6.74284357804,-6.29847571354,-5.82996637807,-5.35071924558,-4.87734840824,-4.42743353214,-4.01711744182,-3.65886231525,-3.35965840369,-3.11992040999,-2.93321880979,-2.78688734103,-2.66343668683,-2.54260171909,-2.40376806537,-2.22847319617,-2.00266454547,-1.71842547088,-1.37494742777,-0.97862615405,-0.542277934361,-0.0835920144459,0.376961665896,0.818480888165,1.2219231349,1.572053381,1.8588279292,2.07809150673,2.23157163456,2.32625190844,2.37328016706,2.38661085355,2.38159082576,2.37367628344,2.37742125337,2.40581479561,2.4699766638,2.5791615351,2.74097954923,2.96172055084,3.24667082002,3.60033022996,4.02646905642,4.52800101409,5.10668631745,5.76270976596,6.49419943114,7.29675911114,8.16308267231,9.0827039611,10.0419176271,11.0238895087,12.0089631914,12.9751614449,13.8988745641,14.7557185363,15.5215315106,16.1734565032,16.6910342847,17.0572091072,17.2591394975,17.2887139696,17.1427005249,16.822507011,16.3335891781,15.6846028765,14.8864427757,13.9513303689,12.8921021941,11.7218061048,10.4536477625,9.10125556229,7.67916594624,6.20338613547,4.69187603933,3.16480719189,1.64449916736,0.154992689126,-1.27871990297,-2.63173493551,-3.88044406702,-5.00379122649,-5.98446864521,-6.80995516457,-7.47331715201,-7.97370893642,-8.31652609433,-8.51318407795,-8.5805198824,-8.53984715765,-8.41573321863,-8.23460365714,-8.02330796376,-7.80778890076,-7.61198343003,-7.45704350194,-7.36090748008,-7.3381895885,-7.40030002716,-7.55567488999,-7.80998973294,-8.16625333153,-8.62472240209,-9.18263394952,-9.83380866888,-10.5682264204,-11.3717050395,-12.2258212254,-13.1081947599,-13.9932159882,-14.8532361117,-15.6601688604,-16.3873815113,-17.0116943709,-17.5152701262,-17.8871639796,-18.1243246504,-18.2318843083,-18.2226482051,-18.1157842942,-17.9348080229,-17.7050451586,-17.4508254737,-17.1927050991,-16.9450299083,-16.7141317224,-16.4973908415,-16.2833047819,-16.0525831472,-15.7801572956,-15.4378690829,-14.9975036391,-14.4337721296,-13.7268416126,-12.8640531193,-11.8405612014,-10.6587574434,-9.32649145559,-7.85425775508,-6.2516575519,-4.52355490205,-2.66641511535,-0.665332108259,1.50778336144,3.89447087811,6.54819553694,9.53095629225,12.9081447687,16.7419634753,21.083883062,25.9667491052,31.3972251365,37.349272163,43.7593158632,50.5236483229,57.4984630359,64.5027417694,71.3240104271,77.7267685498,83.4631853872,88.2854585201,91.9590643887,94.276010082,95.0671383486,94.2125565018,91.6493622635,87.3760240047,81.4530270897,73.9997003651,65.1874587758,55.2300077492,44.3713199525,32.8723850808,20.997824165,9.00343763551,-2.87437835228,-14.4266436196,-25.4768269005,-35.8828181786,-45.5360720269,-54.3584199081,-62.2972407918,-69.3197783773,-75.4073948081,-80.5504633278,-84.7444448405,-87.9874908291,-90.2796941802,-91.6238955532,-92.0277684332,-91.5067687262,-90.0874559494,-87.8106758839,-84.7341342345,-80.933976452,-76.5051057354,-71.5601030219,-66.226743878,-60.6442252136,-54.9583125424,-49.3156944839,-43.8578872085,-38.7150698056,-34.0002523265,-29.8041789581,-26.191345,-23.1974536067,-20.8285541837,-19.0619899962,-17.8491437264,-17.1198173392,-16.78793243,-16.7581077563,-16.9325800065,-17.2178964057,-17.5308316768,-17.8030667214,-17.9843014429,-18.0436393291,-17.9692525996,-17.7664927942,-17.4547387458,-17.0633646335,-16.6272618269,-16.1823581655,-15.7615479633,-15.3913789398,-15.089745226,-14.864718384,-14.7145232281,-14.6285457469,-14.5891600053,-14.5740907783,-14.5589960389,-14.519960455,-14.435634727,-14.2888281888,-14.0674523475,-13.7648079268,-13.3792947866,-12.9136921265,-12.374198006,-11.7694283029,-11.1095554615,-10.4057206708,-9.66978752541,-8.91443157812,-8.15348991903,-7.40243846623,-6.67883091541,-6.00252854579,-5.39557586542,-4.88162867954,-4.48490870711,-4.22873064904,-4.13371312735,-4.21583615148,-4.4845393535,-4.94106444992,-5.57723220677,-6.37481112207,-7.30558669015,-8.33218226908,-9.40962098014,-10.4875573159,-11.5130504727,-12.4337015314,-13.200936402,-13.7731893786,-14.1187321429,-14.2179041024,-14.0645351369,-13.6664119229,-13.0447209703,-12.2324976709,-11.2722093055,-10.2126877308,-9.10569225422,-8.00241625537,-6.95024782746,-5.99005484228,-5.15419283285,-4.46533976935,-3.93616025584,-3.56971059852,-3.36043055832,-3.29553462569,-3.35661398858,-3.52128338944,-3.7647465325,-4.06120108179,-4.38505087793,-4.71193069168,-5.01957174555,-5.28854205237,-5.502885754,-5.65066441004,-5.72437670293,-5.72120830861,-5.64304791356,-5.49620490888,-5.29078315751,-5.0397032327,-4.75741740466,-4.45841795452,-4.15568870378,-3.85928097013,-3.5752000275,-3.30476265202,-3.0445326394,-2.78686737526,-2.52102662164,-2.23471760546,-1.91588959665,-1.5545546637,-1.14440384415,-0.684010586073,-0.177463050859,0.365663346075,0.931001947723,1.50068879586,2.05511367428,2.57493305419,3.04311621022,3.44678699656,3.77864210897,4.03777174916,4.22977645982,4.36615714731,4.4630444179,4.53941775001,4.61503372873,4.70832492044,4.83453840595,5.00435187256,5.22313891288,5.490963949,5.80328513695,6.15224565696,6.52835357901,6.92229899707,7.32664147921,7.73712325964,8.15342070877,8.57922993518,9.02167928854,9.490157499,9.99472738164,10.5443505546,11.1451717711,11.7991002642,12.5028826792,13.2477945873,14.0199949241,14.8015009871,15.5716621813,16.3089495143,16.992844028,17.6056054524,18.1337306149,18.5689623402,18.9087738124,19.1563206041,19.3199140474,19.4121185129,19.4486068114,19.4469200412,19.4252707696,19.4015036093,19.3922889972,19.4125798679,19.4753136593,19.5913014629,19.769220329,20.0156202441,20.3348755305,20.7290459739,21.197655298,21.737431989,22.3420810601,23.002161767,23.7051377928,24.4356485122,25.1760277645,25.9070729209,26.609042497,27.2628348653,27.8512738966,28.3604008285,28.7806482827,29.107757281,29.34329837,29.4946805395,29.5745802849,29.5997952356,29.5896116942,29.5638565267,29.5408631801,29.5356055224,29.5582360656,29.6132101378,29.6990951568,29.8090690498,29.9320197055,30.0540818046,30.1603981978,30.2368752082,30.2717150557,30.2565498188,30.1870621897,30.063049045,29.8879549943,29.6679666823,29.4108089671,29.1244172726,28.8156740018,28.48938982,28.147682888,27.7898619212,27.4128551185,27.012151988,26.5831472678,26.1227062928,25.6307211165,25.1114070998,24.574107257,24.0334269854,23.5086085929,23.0221609467,22.5978683917,22.2583976,22.0227859958,21.9041203486,21.9076952166,22.0298820319,22.257851399,22.5701881877,22.938335853,23.3287149921,23.7052900329,24.0323133255,24.2769620006,24.4116013924,24.4154579435,24.2755591874,23.9868903017,23.5518147143,22.9788974447,22.2813412512,21.4752858487,20.5782215522,19.6077284064,18.5806756275,17.512917828,16.419423837,15.314691504,14.2132533093,13.1300702519,12.0806439214,11.0807401649,10.1456988638,9.28938805502,8.52293335944,7.85340485107,7.28266581767,6.80657749376,6.41471159238,6.09065511462,5.81291180842,5.55632664073,5.29389708456,4.99879659702,4.64642399199,4.21630447003,3.69369725756,3.07080360947,2.3475105957,1.53164488911,0.638742040857,-0.308642055462,-1.28203882246,-2.24854839384,-3.17264256477,-4.01822513434,-4.75086485184,-5.34008666831,-5.7615730642,-5.99909791981,-6.04600189718,-5.90603019764,-5.59339550169,-5.13199885169,-4.5538306937,-3.89667007022,-3.20128676287,-2.50841447943,-1.85579205294,-1.27555929483,-0.792247093487,-0.42152623531,-0.169788262916,-0.0345368960807,-0.00548154191179,-0.0661557263206,-0.195842343004,-0.37158074654,-0.57005789705,-0.769239115665,-0.949659536012,-1.0953590459,-1.19448798443,-1.23963084078,-1.22789130493,-1.16076196902,-1.04377770313,-0.885935387623,-0.698862865027,-0.495739361624,-0.290004893678,-0.0939395553388,0.0827650880185,0.234291324621,0.359677068429,0.463346840239,0.555077555498,0.649333590063,0.76396735344,0.91835264449,1.1310921919,1.4175089199,1.7871826973,2.24182199761,2.77375640646,3.36529670112,3.98913292392,4.60983164841,5.18636293316,5.6754532216,6.03544365997,6.23025333261,6.2330174909,6.02899761974,5.61743975003,5.01217787665,4.24092241629,3.34331847384,2.36798612706,1.36885070918,0.401126847603,-0.482666912263,-1.23631338117,-1.82283331363,-2.21654929021,-2.40416985077,-2.38488558024,-2.16956009024,-1.77917452595,-1.24273751478,-0.594898552169,0.126499789154,0.882724178405,1.63614962554,2.35185893857
