2,-5.2674305096,-7.79916309785,-9.72993610789,-11.2429797732,-12.5000745802,-13.6354848439,-14.7524856376,-15.9224387536,-17.1861820698,-18.5573439642,-20.0270891366,-21.5697473426,-23.1487699804,-24.722495878,-26.2492804388,-27.6916445623,-29.0192239186,-30.2104359644,-31.2529198246,-32.1429290493,-32.8839551937,-33.4849189049,-33.9582764666,-34.3183513144,-34.5801175046,-34.7585493678,-34.8685285788,-34.9251883448,-34.9444931159,-34.9438136205,-34.942265809,-34.9606352361,-35.02079518,-35.1446311591,-35.3525865487,-35.6620237673,-36.0856377162,-36.6301561007,-37.2955180244,-38.0746490415,-38.9538634412,-39.913839422,-40.9310435926,-41.979436023,-43.0322677269,-44.0637862745,-45.0506876576,-45.9731894311,-46.8156483411,-47.5667019768,-48.2189737593,-48.7684366849,-49.2135749099,-49.554505482,-49.7922207847,-49.9280862145,-49.9636828939,-49.9010304528,-49.7431684637,-49.4950227424,-49.1644376432,-48.7632204918,-48.3080232353,-47.8208834711,-47.3292651635,-46.8654788874,-46.4654199245,-46.1666352871,-46.0058113587,-46.0158544986,-46.2228085505,-46.6429057504,-47.2800714555,-48.1241911602,-49.1503976136,-50.3195493777,-51.5799586894,-52.8702995212,-54.1235023603,-55.2713363072,-56.2493046237,-57.0014447895,-57.4846304842,-57.6720171584,-57.5553477126,-57.1459312859,-56.4742171351,-55.5879981532,-54.5493860231,-53.4307939419,-52.3102358748,-51.2662978132,-50.3731533405,-49.6959824673,-49.2871113226,-49.1831252847,-49.403125868,-49.9482098455,-50.8021558328,-51.9332164969,-53.2968401374,-54.8390885224,-56.5004814396,-58.2199826591,-59.9388442772,-61.6040428317,-63.1710688001,-64.6058722853,-65.8858257975,-66.9996435838,-67.9462952295,-68.73306166,-69.3729894561,-69.882085201,-70.2766359983,-70.5710311399,-70.776388567,-70.9001655254,-70.9467742607,-70.9190573023,-70.8203320171,-70.6566162154,-70.4386124953,-70.1830642858,-69.9131953932,-69.6580914451,-69.451052493,-69.3271135863,-69.3200672745,-69.4594065144,-69.7676241947,-70.2582523163,-70.9349069783,-71.7914434209,-72.8131465848,-73.978719793,-75.2627182304,-76.6380272178,-78.0780159118,-79.5580961308,-81.0565595064,-82.5547212649,-84.0365326439,-85.4879107531,-86.8960614677,-88.2490382882,-89.5357004899,-90.7461273555,-91.8724340823,-92.9098388826,-93.8577643554,-94.7207279585,-95.508789504,-96.2373768424,-96.9263990032,-97.5986692712,-98.2777840341,-98.9857169609,-99.7404703064,-100.55415651,-101.431851755,-102.371467643,-103.364738643,-104.399244054,-105.461204074,-106.538643181,-107.624428864,-108.718687922,-109.830179351,-110.976349663,-112.181988615,-113.476608702,-114.890858002,-116.452414725,-118.18188378,-120.08921267,-122.171070887,-124.4095104,-126.772068571,-129.21331387,-131.677688854,-134.103385774,-136.42690227,-138.587867591,-140.533702834,-142.223682342,-143.632000196,-144.749519167,-145.583991425,-146.158687941,-146.509545457,-146.681115922,-146.721756883,-146.678605444,-146.592912568,-146.496269673,-146.40814076,-146.334938173,-146.270675038,-146.199022958,-146.096429309,-145.935828808,-145.690434466,-145.337117819,-144.858979722,-144.246852674,-143.499639135,-142.623551639,-141.630457084,-140.535622843,-139.355208233,-138.103841403,-136.792576369,-135.42744942,-134.008761965,-132.53112099,-130.984180047,-129.353952298,-127.624518896,-125.779933508,-123.806125458,-121.692624658,-119.433964001,-117.03065247,-114.489650142,-111.824312583,-109.053806943,-106.202036295,-103.296142925,-100.364694554,-97.4356878791,-94.5345283459,-91.6821598466,-88.8935187276,-86.1764687537,-83.5313354971,-80.9511021479,-78.4222612456,-75.9262489965,-73.441331823,-70.9447770686,-68.4151251492,-65.8343874899,-63.1900177482,-60.4765354537,-57.6967137747,-54.8622709133,-51.9940245617,-49.1214813282,-46.2818422537,-43.5184189192,-40.8784803955,-38.4105946879,-36.1615882283,-34.1733144242,-32.4794822439,-31.1028315211,-30.0529398913,-29.3249017922,-28.8990373491,-28.7416815068,-28.8069899658,-29.0395973627,-29.3778897327,-29.7576154163,-30.1155558441,-30.3930030103,-30.5388333959,-30.5120182492,-30.2834598845,-29.8370892224,-29.1702004436,-28.2930351751,-27.2276622111,-26.006230471,-24.6687036717,-23.2602154443,-21.8282120298,-20.419572219,-19.0779044562,-17.8412124609,-16.7400897075,-15.7965509025,-15.0235415096,-14.4250947556,-13.9970418289,-13.7281365707,-13.6014377258,-13.5957999585,-13.6873532643,-13.8508892436,-14.0611114957,-14.293737945,-14.5264608161,-14.7397746513,-14.9176764376,-15.0482281231,-15.1239543888,-15.1420316365,-15.1042128761,-15.0164336011,-14.8880613518,-14.7307889603,-14.5572257135,-14.3793032803,-14.2066709261,-14.0452922704,-13.8964609303,-13.7564183446,-13.6166856635,-13.4651227533,-13.2876171116,-13.0702027363,-12.8013317983,-12.4739840359,-12.0873070464,-11.6475342146,-11.1680176053,-10.6683268992,-10.1724858687,-9.70652897665,-9.29564941843,-8.96126743981,-8.71836906512,-8.57344853197,-8.52333313046,-8.55507964992,-8.64701352239,-8.77084597194,-8.89466715382,-8.98649415656,-9.01797131414,-8.96779062311,-8.82442700438,-8.58786152286,-8.27008278931,-7.89429618125,-7.49291500941,-7.10454080694,-6.77024660428,-6.52954545518,-6.41644978462,-6.45600528147,-6.66162267477,-7.03344315634,-7.55787157888,-8.20830783238,-8.94700950704,-9.72793246918,-10.5003219489,-11.2127667602,-11.8173869912,-12.2738065794,-12.5525721087,-12.6377201617,-12.5282644472,-12.2384623741,-11.7968178553,-11.2438728591,-10.6289276439,-10.0059052304,-9.42863805292,-8.94590251106,-8.5965574638,-8.40515125521,-8.37834400098,-8.502444309,-8.74228192815,-9.04153381773,-9.32449960048,-9.49919654586,-9.461529641,-9.1002034691,-8.30198986852,-6.95695298239,-4.96325967991,-2.23126254186,1.31337335799,5.72762825243,11.0501895974,17.3015271716,24.4847845079,32.587195465,41.5816612184,51.428081397,62.0740350154,73.4544620866,85.4901112631,98.084691595,111.120886725,124.455635878,137.915326932,151.291746174,164.339749735,176.777630551,188.291029449,198.540973046,207.176228265,213.84967873,218.23790561,220.062657997,219.112491261,215.26259698,208.490794136,198.887827967,186.660531972,172.127019267,155.703818184,137.885664763,119.219410783,100.274104116,81.6096725584,63.7467493227,47.140012672,32.1570061711,19.0638223333,8.01835119904,-0.928899803257,-7.82704326353,-12.8112534296,-16.0849264194,-17.8992756974,-18.5321195676,-18.2675101427,-17.3776220265,-16.1079930899,-14.6668227524,-13.2186213349,-11.8821044542,-10.7318745502,-9.80315789122,-9.09869156167,-8.59679112581,-8.2596729112,-8.0412393073,-7.89373454913,-7.77290915877,-7.64156013683,-7.47151319068,-7.24426405152,-6.95058967327,-6.58947703146,-6.1667040667,-5.69335488718,-5.18447257303,-4.6579612164,-4.13375696945,-3.63320738889,-3.17853937076,-2.79226697847,-2.49639736727,-2.31133688863,-2.25447437161,-2.33851094251,-2.56969635106,-2.94620010945,-3.45687533518,-4.08065611095,-4.78676817713,-5.53584024005,-6.28189755915,-6.9751201966,-7.56517048543,-8.0048449923,-8.25378416606,-8.28197101984,-8.07276037861,-7.62519673251,-6.95540048495,-6.09683297892,-5.09929646268,-4.02659210463,-2.95285013693,-1.95765932632,-1.12025120016,-0.513125839452,-0.195624434627,-0.20804014405,-0.566893271393,-1.26196191374,-2.25554413394,-3.48423275832,-4.86322428939,-6.2928895902,-7.6670477041,-8.88215067137,-9.84644563445,-10.4881554802,-10.7618159431,-10.65211097,-10.1748288097,-9.37487899672,-8.32162360235,-7.10204805402,-5.81249968646,-4.54983900912,-3.4028732022,-2.44487718339,-1.72786676479,-1.27908973453,-1.09996760655,-1.16747883463,-1.43774797847,-1.85141491175,-2.3402176747,-2.83413938598,-3.26844539774,-3.58996883285,-3.76208505643,-3.76794121404,-3.61166749209,-3.31748238791,-2.9268020893,-2.49365707336,-2.07888694994,-1.74370653445,-1.54329490146,-1.52104564796,-1.70403286945,-2.10010657803,-2.69685420712,-3.46247466056,-4.34842935926,-5.29357785222,-6.22938567391,-7.08571623538,-7.7966891476,-8.30610308141,-8.57197740303,-8.56985617898,-8.2946316292,-7.76077141654,-7.00096461964,-6.06332484835,-5.00739732376,-3.89930336203,-2.80641569093,-1.79198787449,-0.910158981562,-0.201720995193,0.309025455018,0.616085754981,0.732113845727,0.687244752249,0.526482361086,0.305804963602,0.0872412284635,-0.0667473810903,-0.0991662308902,0.0358047157765,0.367807435881,0.90651927619,1.63954350327,2.53232425323,3.53026148594,4.56298423241,5.55050049748,6.41070940562,7.06756743795,7.45907493741,7.54421358152,7.30803258112,6.76425117092,5.95500343353,4.9476694638,3.8290725738,2.69762810453,1.65426166972,0.793042476603,0.19248862282,-0.0915966572126,-0.0310831766661,0.372168021004,1.08679552673,2.05514182768,3.19883180161,4.42618051734,5.64073093167,6.75012909872,7.67451980643,8.35369253671,8.75232563785,8.86285900074,8.70575802322,8.32719184724,7.79440811326,7.18931373534,6.60093821105,6.1175426834,5.81913640432,5.77107759002,6.01928415519,6.58738477228,7.47592816258,8.66356362568,10.109929984,11.7598589988,13.5484214118,15.4063200539,17.2651591209,19.0621811173,20.7441506989,22.2701663201,23.6132873827,24.760969712,25.7143995757,26.4868993709,27.10163886,27.588917277,27.9832798033,28.3206989676,28.6359964417,28.9606176254,29.3208156443,29.7362649019,30.2191121232,30.7734814873,31.395468868,32.0736725578,32.7902986579,33.5228396738,34.2462570675,34.9355163072,35.5682467606,36.1272487925,36.6025603175,36.9928286277,37.3058045756,37.5578724141,37.7726345488,37.9786723983,38.2066923381,38.4863326812,38.8429489745,39.2947062841,39.8502852627,40.5074530816,41.2526648277,42.0617551245,42.9016670429,43.7330605136,44.5135580639,45.2013299218,45.7586962292,46.1554296165,46.3714724585,46.3988348925,46.2425079044,45.9203067283,45.4616491103,44.9053643635,44.2967140314,43.6838737136,43.1141696894,42.6303783492,42.2673806418,42.0494218407,41.9881663736,42.0816674952,42.3143010472,42.6576478781,43.0722538813,43.5101505881,43.9179818442,44.2405516022,44.424582612,44.4224551675,44.1956805299,43.7178593077,42.9768872448,41.9762061908,40.7349599907,39.2870008376,37.6787914511,35.9663481425,34.2114552543,32.4774420968,30.8248442337,29.3072720004,27.9677847306,26.836025704,25.9263166909,25.236846754,24.7500196193,24.4339476581,24.2449992884,24.131224585,24.0364088673,23.9044455621,23.6836861283,23.3309215658,22.8146782835,22.1175684581,21.2375156873,20.1877723777,18.9957462647,17.7007505614,16.350877638,14.9992633398,13.7000526206,12.5043928845,11.4567672353,10.5919370154,9.93269683534,9.48856444873,9.25544282882,9.21621283258,9.34214981211,9.59501099287,9.92961361068,10.2967151611,10.6460130535,10.9290965059,11.1022033822,11.1286545439,10.9808559983,10.6417751956,10.1058149733,9.37903018733,8.47866009205,7.43198404387,6.27454739776,5.0478462369,3.79660164882,2.56579438374,1.39766581126,0.328916548568,-0.611656138872,-1.40485384916,-2.04191806495,-2.5244002801,-2.86304206837,-3.07575899655,-3.18493543433,-3.21433255646,-3.18597296953,-3.11738163357,-3.01953068334,-2.8957593791,-2.7418295595,-2.54714496188,-2.29702425453,-1.97578712616,-1.57030396872,-1.07358456204,-0.487948934464,0.172660237128,0.881598141912,1.59993195253,2.27845461583,2.86122068016,3.29033118069,3.51151084532,3.4798762786,3.16521633011,2.55611751824,1.66237689739,0.515342746041,-0.833917850254,-2.31844731166,-3.86079295611,-5.37935594525,-6.79498862812,-8.03714422859,-9.04898248273,-9.79100158093,-10.242969991,-10.4041393593,-10.2919026431,-9.93919744325,-9.39103030345,-8.70051227303,-7.9247596455,-7.12094550115,-6.34270966606,-5.63706620297,-5.04190046543,-4.58412463879,-4.27855490668,-4.12757132114,-4.1216074401,-4.24047948814,-4.45550219034,-4.73225884239,-5.03381213125,-5.32407740534,-5.57104674929,-5.74955967015,-5.84336554894,-5.84630648184,-5.76255195277,-5.60592125431,-5.39841962888,-5.16817834045,-4.94702169843,-4.76788553739,-4.66228703292,-4.65800416771,-4.77707569654,-5.03418938213
2,34.8918343646,21.9243941665,10.3233471359,0.166625170023,-8.52103294054,-15.7680078049,-21.6521343473,-26.2938097407,-29.8465166188,-32.4856079696,-34.3963141151,-35.7619503459,-36.7532304968,-37.5194404866,-38.1820173172,-38.8308383615,-39.5232790074,-40.2858675204,-41.1181728489,-41.998415606,-42.8901992262,-43.7497165554,-44.5327934642,-45.2011814928,-45.7276021917,-46.0991721734,-46.3189932121,-46.4058657417,-46.3922624789,-46.3208639513,-46.2400906366,-46.1991507057,-46.2431471536,-46.4087504696,-46.7208487023,-47.1904497214,-47.8139509159,-48.5737329913,-49.4398997004,-50.3728920927,-51.3266636782,-52.2521108547,-53.1004999019,-53.8266991761,-54.3920918249,-54.7670927378,-54.9332139481,-54.8846160121,-54.6290593859,-54.1881461434,-53.5967359415,-52.9014437856,-52.1581856489,-51.4288271581,-50.7770982334,-50.2640452437,-49.9433824281,-49.8571582783,-50.0321575995,-50.4774111527,-51.1830864239,-52.1208981262,-53.2460246246,-54.5003678927,-55.8168691242,-57.1245034615,-58.3535316349,-59.4405822718,-60.3331693808,-60.9933061478,-61.3999511191,-61.5501115653,-61.4585291842,-61.1559832462,-60.6863612417,-60.1027584186,-59.4629629897,-58.8247492294,-58.2414235269,-57.7580409799,-57.408632345,-57.2146618377,-57.1847910792,-57.3158729073,-57.5949608256,-58.0020136535,-58.5129143962,-59.102414928,-59.7466629528,-60.4250554886,-61.121277943,-61.8235109049,-62.5239002554,-63.2174760679,-63.9007630066,-64.5703454747,-65.2216348566,-65.8480380171,-66.4406533925,-66.9885342792,-67.4794712416,-67.9011702632,-68.2426513385,-68.4956698068,-68.6559702626,-68.7242157972,-68.7064858162,-68.6142944508,-68.4641393605,-68.276639516,-68.0753546846,-67.885396404,-67.7319415421,-67.6387497632,-67.6267718042,-67.7129224355,-67.9090840127,-68.2214037429,-68.6499463791,-69.1887571177,-69.8263698872,-70.5467605366,-71.3306953547,-72.1573711976,-73.0061954601,-73.8585228484,-74.6991586485,-75.5174571637,-76.307886417,-77.0699896672,-77.8077428218,-78.5283764949,-79.2407946217,-79.9537706928,-80.6741310359,-81.4051378724,-82.1452627328,-82.8874969227,-83.6192867199,-84.3231147584,-84.9776832797,-85.5595962292,-86.0453911392,-86.4137427278,-86.6476503443,-86.7364297888,-86.6773524374,-86.47680521,-86.1508784795,-85.7253223992,-85.2348447241,-84.7217562302,-84.2340051969,-83.8226813385,-83.5391115419,-83.4317119167,-83.5427978131,-83.9055792536,-84.5415777528,-85.4586879166,-86.650072814,-88.0940286715,-89.7548876551,-91.5849543923,-93.5273984073,-95.519953929,-97.4992109557,-99.4052170872,-101.186051408,-102.801987516,-104.228844929,-105.460150362,-106.507803507,-107.401068476,-108.183882783,-108.910669166,-109.641022267,-110.433791915,-111.341173632,-112.403432157,-113.644824281,-115.071161379,-116.669275105,-118.408441052,-120.243597384,-122.119992677,-123.978734217,-125.762606883,-127.421508863,-128.916908738,-130.224861235,-131.337306868,-132.261595682,-133.01838655,-133.638252695,-134.15745104,-134.613377316,-135.040229576,-135.465346289,-135.906582272,-136.370949743,-136.854597646,-137.344046401,-137.818454081,-138.25257979,-138.620043301,-138.896464276,-139.062100144,-139.103682809,-139.015268972,-138.798051475,-138.459213332,-138.010026125,-137.463486671,-136.831839489,-136.124340506,-135.345577535,-134.494579824,-133.564833725,-132.545191165,-131.421532443,-130.178943878,-128.804108707,-127.287592901,-125.625734509,-123.821906707,-121.887008051,-119.839125314,-117.702403435,-115.505235522,-113.277948658,-111.05020637,-108.848374939,-106.693106753,-104.597377801,-102.565176766,-100.59098142,-98.660079667,-96.7497076202,-94.8308978201,-92.870868029,-90.835741861,-88.6933784833,-86.4160966806,-83.9831023738,-81.382461009,-78.6124913965,-75.6824927953,-72.6127523209,-69.433817074,-66.1850571836,-62.9125929448,-59.6667082573,-56.4989165541,-53.4588763531,-50.5913666366,-47.9335276388,-45.5125542021,-43.3440014856,-41.4308299965,-39.7632798239,-38.3196216393,-37.0677822928,-35.9677836684,-34.9748648057,-34.0430831047,-33.1291196021,-32.1959584815,-31.2160854641,-30.1738639031,-29.0668058197,-27.9055549601,-26.712530092,-25.5193233595,-24.3630916085,-23.2822992405,-22.3122535389,-21.4809072904,-20.8053851405,-20.2896216452,-19.9233873118,-19.6828346384,-19.5325330397,-19.4287961952,-19.3239562846,-19.1711254466,-18.9289217051,-18.5656351896,-18.0623733382,-17.4148441074,-16.6335983485,-15.742734328,-14.7772441427,-13.7793304516,-12.7941250096,-11.8652884511,-11.0309622603,-10.3204840855,-9.75217626544,-9.33238727472,-9.05582103393,-8.90704464034,-8.86293622842,-8.89573597158,-8.97630742856,-9.07721219346,-9.17525004836,-9.2532124408,-9.30072268573,-9.31416888323,-9.29585135636,-9.25254731196,-9.19373358388,-9.12970698932,-9.06981216785,-9.02094246692,-8.98643176591,-8.96541032474,-8.95265722172,-8.93894457865,-8.91183339922,-8.85684746098,-8.75892116847,-8.60399074316,-8.38057710604,-8.0811958892,-7.70342947656,-7.25051343707,-6.73133026433,-6.1597685701,-5.55349124708,-4.93225011275,-4.3159703455,-3.72288704156,-3.16803238895,-2.66233569877,-2.21250979509,-1.82176691551,-1.49125612925,-1.22196953505,-1.01675435832,-0.88201581343,-0.82871453294,-0.872352975214,-1.03179534099,-1.32695292659,-1.77556289661,-2.38946225771,-3.17088161242,-4.10933295809,-5.17963056164,-6.34146464827,-7.54075860625,-8.71280809316,-9.78695945551,-10.6923717885,-11.3642532957,-11.749889217,-11.8137925112,-11.5414028443,-10.9409163567,-10.0430240785,-8.89854552661,-7.57414339708,-6.14647739158,-4.69528713939,-3.29597774091,-2.01231299663,-0.889801292918,0.0497085976827,0.811812540259,1.43144529244,1.97276623774,2.52707383138,3.20892789013,4.15077653912,5.49647116941,7.39410479817,9.98862535828,13.4146550934,17.7898908857,23.2093711236,29.7407803351,37.4208365989,46.2526868374,56.2041416259,67.2065322289,79.1539802458,91.9029374573,105.271972584,119.041935121,132.956788915,146.725550347,160.025858086,172.509716938,183.811877863,193.561131321,201.394508109,206.974024106,210.005212078,210.256305788,207.576634737,201.912603683,193.319609562,181.968410659,168.144807419,152.241996581,134.745573847,116.21182089,97.2405453921,78.4442739177,60.4159645802,43.6975696455,28.7517237046,15.9385745168,5.49934694156,-2.45231417124,-7.93078309567,-11.0708509764,-12.1128364012,-11.3816639678,-9.26156050092,-6.16828458993,-2.52092768918,1.28470394412,4.89929786783,8.03832817527,10.4943665103,12.142868201,12.9414471286,12.9231896958,12.1850211834,10.872481078,9.16245664616,7.24545453267,5.30886737941,3.52244357091,2.02683385183,0.925716236437,0.281637069765,0.115389967771,0.408511089927,1.10830915414,2.13476836058,3.38864806502,4.7601350176,6.13746243831,7.41498009576,8.50023333096,9.31968620094,9.82280866289,9.98434481835,9.80469079082,9.3084338629,8.54123074825,7.56532026809,6.45406114564,5.28594804836,4.13858199449,3.08305417643,2.17914934582,1.47169306886,0.988264257495,0.738378659422,0.714129429347,0.892157313653,1.23672487183,1.70359384532,2.24435609999,2.81084708331,3.35927509865,3.85372804747,4.26877003363,4.59091204251,4.8188322753,4.96233009059,5.04011815998,5.07668199702,5.09855132936,5.13041652916,5.19156703345,5.29311262334,5.43636634845,5.61262501664,5.80439646918,5.98791864133,6.13662519649,6.22506799552,6.23273416628,6.14721060987,5.96625181919,5.698481496,5.36267346646,4.98577269722,4.59999260751,4.23942983624,3.936658685,3.71971039981,3.60972888084,3.61945455261,3.75255275803,4.00369678736,4.35925297165,4.79839923087,5.2945316995,5.81686112274,6.33215190062,6.80659299819,7.20779825017,7.50690968423,7.6807270437,7.71372390596,7.59975490477,7.34322866849,6.95953077831,6.47453480405,5.92313168599,5.34682430694,4.79055583336,4.29904714536,3.91299319743,3.66549905334,3.57911976207,3.66380821929,3.9159822437,4.31881040309,4.84369971427,5.45285834811,6.10271005475,6.74785855127,7.34524358783,7.85810119908,8.25934498882,8.53402773615,8.68062307729,8.71097930343,8.64892975466,8.52768205474,8.38623622018,8.26518590207,8.20232712878,8.22852791163,8.36429644347,8.6174252064,8.98198658301,9.43882024483,9.95749592302,10.4995732283,11.0228311446,11.4860216298,11.8536296245,12.1001057837,12.2130818785,12.1951789449,12.064165904,11.8514071282,11.5987318327,11.3540432487,11.1661381933,11.0793087415,11.1283347747,11.3344443821,11.7027207841,12.221278688,12.8623353562,13.5850840526,14.3400667162,15.0745665387,15.7384232666,16.2896292913,16.6990964865,16.9540849805,17.0599398987,17.0399699296,16.9334998303,16.7923156206,16.6758765424,16.6457767787,16.7599937657,17.0674572257,17.6034190625,18.3860097715,19.4142464829,20.6676267212,22.1073138762,23.6788041286,25.3158639267,26.9454423672,28.493193815,29.8891946651,31.0734091231,32.0004589843,32.6432880464,32.9953866009,33.0713541252,32.9057215203,32.5501145561,32.0689994204,31.5343892595,31.019989116,30.5953032834,30.3202196137,30.2405241165,30.3846977017,30.7622205355,31.3634738591,32.1611972093,33.1133399622,34.1670461019,35.2634343239,36.3427850629,37.3497236338,38.2379949269,38.9744588147,39.5419935849,39.941072785,40.1898737745,40.3228790827,40.3880397747,40.4426788962,40.5484180904,40.7655065925,41.1470127475,41.7333953734,42.5479940587,43.5939500243,44.8529800387,46.2862695533,47.8375342726,49.4380428237,51.013131245,52.4895149551,53.8025576135,54.9026206704,55.7597062472,56.3658114794,56.7347062602,56.899184512,56.9061701285,56.8103327794,56.6670468365,56.5255867807,56.4233919146,56.3820671434,56.4055436942,56.4805406505,56.5791838741,56.6633886348,56.6904236942,56.6189648273,56.414920559,56.0563675539,55.5370548979,54.8681075874,54.0777596528,53.2091561443,52.3164618863,51.4596867182,50.6987670334,50.0875187785,49.668087609,49.4664630338,49.4894990804,49.7237087325,50.1358973501,50.6755014772,51.2783332244,51.8713188079,52.37777289,52.7227649621,52.8381958953,52.6672908333,52.1683060537,51.3173234842,50.1100571783,48.5626215034,46.711219687,44.6107169793,42.3320792445,39.9586966758,37.581678623,35.2942963599,33.1858557519,31.3353856624,29.8056126653,28.6377410282,27.8475553026,27.423302666,27.3256915093,27.4901679057,27.8314181544,28.2498175116,28.6393313276,28.8962035551,28.9276619957,28.6598433123,28.0441966303,27.0617559052,25.7248649115,24.0761769513,22.1850126073,20.1414175962,18.0484906476,16.0137201712,14.1401553011,12.5182293417,11.2189536597,10.2890243434,9.74816055144,9.58875571871,9.777702325,10.2600718236,10.9642070923,11.8077185367,12.7038620996,13.5678086353,14.3223779081,14.9028948573,15.2609194584,15.366695126,15.2102474751,14.8011417128,14.166972113,13.3507123715,12.4071039007,11.3983030218,10.389048995,9.44165234897,8.61113429281,7.94086798099,7.45907370951,7.17649430603,7.0855168306,7.16090897866,7.36220606516,7.63762682488,7.92922944935,8.17886363497,8.33435185473,8.35526410875,8.21765120135,7.91718046067,7.47027177037,6.9130449015,6.2981345069,5.68967385763,5.15695939096,4.76745743836,4.5798835573,4.6380673742,4.96621809263,5.56604461711,6.41598263501,7.47256356258,8.67374974769,9.94387648396,11.1997008774,12.3569732885,13.3369263649,14.0721196038,14.5111755064,14.6220805273,14.393879403,13.8367440879,12.98053139,11.8720457851,10.5712922493,9.14704092003,7.67203752039,6.21818804014,4.85202849914,3.630762731,2.59911200751,1.7871674161,1.20936724648,0.86463821931,0.737646608153,0.80101264133,1.01826050571,1.34721765274,1.74354884041,2.16411597626,2.56989318245,2.92823221005,3.21435762026,3.41206271745,3.51366349806,3.51933704612,3.43601414289,3.27600969743,3.05556110372,2.79341095264,2.50952664152,2.22400529353,1.95617540923,1.72387997342,1.54290837247,1.42653364978,1.38510583407,1.4256527731
2,-14.5703198097,-16.4170746862,-17.8067132595,-18.8755712227,-19.7423826824,-20.505578972,-21.242414658,-22.009659814,-22.8454678865,-23.7719636507,-24.7981032218,-25.9224322308,-27.1354901022,-28.4217494107,-29.7611087011,-31.1300498041,-32.5026131746,-33.8513377064,-35.1482672835,-36.3660639184,-37.4792054512,-38.4651980781,-39.3057073333,-39.9875067053,-40.5031580729,-40.8513672386,-41.0369939336,-41.0707310765,-40.9684960694,-40.7505931998,-40.4407097919,-40.0648020679,-39.6499151099,-39.2229716375,-38.8095624053,-38.4327793211,-38.1121484397,-37.8627369054,-37.6945168824,-37.6120632643,-37.6146377634,-37.6966728726,-37.8486231471,-38.0581085992,-38.3112449386,-38.5940428211,-38.8937622098,-39.2001224481,-39.5062859857,-39.8095481499,-40.1116755896,-40.4188450505,-40.7411474224,-41.0916445563,-41.4850005475,-41.9357536758,-42.4563452625,-43.0550705116,-43.7341564715,-44.4881963695,-45.3031711305,-46.1562622943,-47.0166022404,-47.8470178998,-48.6067089229,-49.2546732212,-49.753570698,-50.0736219533,-50.1960933271,-50.1159360152,-49.8432265844,-49.4031877327,-48.8347304715,-48.187626724,-47.5185716309,-46.8865116709,-46.3476902021,-45.9508940245,-45.7333727856,-45.7178470984,-45.9109213791,-46.303077553,-46.8702564673,-47.5768532127,-48.3797843034,-49.233153436,-50.0929685353,-50.9213574308,-51.6897937165,-52.3809692564,-52.9891190714,-53.5187970445,-53.9822941713,-54.39606231,-54.7766349851,-55.1366062154,-55.4812282574,-55.8061175613,-56.0964226125,-56.3276241746,-56.4679308423,-56.4820268693,-56.3357504093,-56.0011500776,-55.461301103,-54.7142666317,-53.7756646916,-52.6794399918,-51.4766293092,-50.2321316067,-49.0197263501,-47.9157993144,-46.9924073262,-46.3104181454,-45.9134831781,-45.8235337944,-46.0383429122,-46.5314786926,-47.2547212355,-48.1427456559,-49.119626688,-50.1065187609,-51.0297325599,-51.8283771629,-52.4607698697,-52.9089299662,-53.1806579559,-53.3089436231,-53.3487253777,-53.3713145136,-53.4570697872,-53.6871242892,-54.1350932255,-54.8597019744,-55.8991589847,-57.2678690903,-58.9557718585,-60.9302443107,-63.1401819159,-65.5216165571,-68.0040824963,-70.5169186936,-72.9947934139,-75.3819300786,-77.6347630034,-79.7230129067,-81.6294013022,-83.34838497,-84.8843652272,-86.2498071178,-87.4636035457,-88.5498659703,-89.5371526233,-90.4579941575,-91.3484747767,-92.247591013,-93.1961430328,-94.2350053554,-95.4027572767,-96.7328044954,-98.2502655577,-99.9690034001,-101.889232501,-103.996114444,-106.259668676,-108.636181081,-111.071109805,-113.503290895,-115.870063938,-118.112796401,-120.182205873,-122.042874204,-123.676419494,-125.0829337,-126.280489363,-127.302744949,-128.19490593,-129.008497939,-129.795552101,-130.602871212,-131.467029054,-132.410655938,-133.440395392,-134.546703252,-135.705430499,-136.880916321,-138.030146695,-139.107429055,-140.069007339,-140.877093745,-141.502910881,-141.928498096,-142.147211099,-142.163008155,-141.988748037,-141.643811207,-141.151391228,-140.535790691,-139.820003823,-139.023789702,-138.16235055,-137.245643284,-136.278281162,-135.259933967,-134.186112787,-133.049226365,-131.839812084,-130.547865034,-129.164203354,-127.681810915,-126.097088793,-124.410928986,-122.629506328,-120.764677734,-118.833890351,-116.859535579,-114.867741712,-112.886666043,-110.944415387,-109.066778912,-107.274988036,-105.583719455,-103.999529766,-102.519860715,-101.13269331,-99.816868477,-98.5430405861,-97.2751933986,-95.9726261675,-94.5923074252,-93.0914886881,-91.4304622296,-89.5753306975,-87.5006318761,-85.1916362236,-82.6461193729,-79.8754180697,-76.9046132562,-73.7717482234,-70.5260753846,-67.2254192484,-63.9328307237,-60.7127759801,-57.6271434383,-54.7313631005,-52.0709172048,-49.6784871589,-47.5719356133,-45.7532685005,-44.2086616014,-42.9095704735,-41.8148724342,-40.8739165272,-40.0302847356,-39.2259997118,-38.4058581372,-37.5215341963,-36.5350948651,-35.4216056236,-34.170583713,-32.7861697749,-31.2860228955,-29.6990785561,-28.0624233092,-26.4176183608,-24.80683843,-23.2691818474,-21.8374590683,-20.5356907015,-19.3774565888,-18.3651482594,-17.4900995361,-16.7335114316,-16.068050616,-15.4599847008,-14.8717182137,-14.2646035723,-13.6019126728,-12.8518575215,-11.9905356432,-11.0046462199,-9.89378185991,-8.67206161428,-7.36885103286,-6.02833230253,-4.70775356872,-3.47430261137,-2.40070482956,-1.55981651318,-1.0186421141,-0.832318385774,-1.0386551874,-1.65379186001,-2.66942475239,-4.0519049502,-5.74332238415,-7.66450996529,-9.71973966508,-11.8027531996,-13.803677189,-15.6163158256,-17.1452913319,-18.3125123752,-19.0624922522,-19.3661112272,-19.2225196292,-18.6590079146,-17.7288220812,-16.507068317,-15.0850150659,-13.5632454241,-12.0442192708,-10.6248579781,-9.38975755364,-8.40557008314,-7.71697776569,-7.34453363178,-7.2844757727,-7.51045492232,-7.97696315293,-8.6241245345,-9.38341243664,-10.1837950531,-10.9577823454,-11.6468567982,-12.2058208917,-12.6056881345,-12.8348794124,-12.898653356,-12.8168827136,-12.6204672479,-12.3468241536,-12.0349981269,-11.7209695895,-11.4337045403,-11.1923865946,-11.0051143372,-10.8691560293,-10.7726539356,-10.6974878258,-10.6228651693,-10.5291230107,-10.401214897,-10.2314170563,-10.0209113332,-9.78006753031,-9.52742757867,-9.28756078902,-9.08809106656,-8.95627973964,-8.9155771319,-8.98253572088,-9.16441677554,-9.45773267421,-9.84786108173,-10.3097563543,-10.8096782488,-11.3077672299,-11.7612264335,-12.1278265093,-12.3694308788,-12.4552416642,-12.3644854125,-12.0882882199,-11.6305297784,-11.0075160016,-10.2463736509,-9.38215181276,-8.45371608711,-7.49863896317,-6.54741497237,-5.61744689917,-4.70734084431,-3.79209414175,-2.81974577544,-1.7099766533,-0.355000131979,1.37711391511,3.63676149357,6.58507351178,10.3846190074,15.1891603163,21.1331362465,28.3215341051,36.8207337934,46.6507878592,57.7794655453,70.1182608809,83.5204642904,97.7813360416,112.640400572,127.785894883,142.861433242,157.474969178,171.210118147,183.639829071,194.342249321,202.918417778,209.011161024,212.324288586,212.640924999,209.839625118,203.906839529,194.944365808,183.170659287,168.915281579,152.606306486,134.751125204,115.911721997,96.6760480695,77.6275333653,59.3149907561,42.2251574358,26.7598859624,13.2195709068,1.79382787491,-7.44020382978,-14.5122134306,-19.546590761,-22.7451517556,-24.3663663529,-24.7028863897,-24.0591585007,-22.7307531942,-20.9867739228,-19.0563599481,-17.1198954612,-15.3051158496,-13.6878912609,-12.2970988619,-11.1226987715,-10.1259311106,-9.25047116332,-8.43342136968,-7.6151718706,-6.74739917906,-5.79875709901,-4.7581020776,-3.63534701399,-2.46022493037,-1.27935510766,-0.152044487739,0.854755375331,1.67195603979,2.23396969117,2.48417459251,2.37992201129,1.89680022573,1.03187143609,-0.194389565333,-1.73768687223,-3.53118332216,-5.48851830601,-7.50847691865,-9.48107409808,-11.2946720078,-12.843626817,-14.0358793395,-14.7998754494,-15.0902330229,-14.891660658,-14.2207699058,-13.1255914997,-11.6827887177,-9.99274028385,-8.17282751142,-6.34939650093,-4.64897004682,-3.18935062088,-2.07128045974,-1.37130265868,-1.13639527754,-1.38082938691,-2.08553697751,-3.20007570767,-4.64705877639,-6.32869766266,-8.13490402558,-9.9522374979,-11.6728904524,-13.2028863602,-14.4687431371,-15.4220123369,-16.0413313934,-16.3318910506,-16.322490166,-16.0605925038,-15.6059878508,-15.0237743776,-14.37741215,-13.7225501192,-13.1022098799,-12.5437342801,-12.0576975116,-11.6387488543,-11.2681499407,-10.91759014,-10.5537480097,-10.1430235155,-9.65590061201,-9.0705051148,-8.37507827721,-7.56926222885,-6.66425635414,-5.68202546566,-4.65380454887,-3.61814901539,-2.61873532049,-1.70204472744,-0.914986262621,-0.302454907671,0.0952066586407,0.244862977116,0.123329132845,-0.279901397378,-0.960136225517,-1.89544529836,-3.04543695452,-4.35119937139,-5.73672147885,-7.11201023957,-8.37796474119,-9.43286283492,-10.1800847561,-10.536471673,-10.4405326126,-9.85960718249,-8.79509237035,-7.28496360471,-5.40305912195,-3.25492919163,-0.970437573355,1.30630980842,3.42879866736,5.26055652269,6.68696941177,7.62525732232,8.03158225902,7.90456136296,7.28483686814,6.25077054298,4.91073458783,3.39281765499,1.83301561871,0.363106605592,-0.900591704517,-1.86651289974,-2.47434903434,-2.6982617796,-2.54664968094,-2.05869184625,-1.29821713659,-0.345698660317,0.710681713449,1.78392706089,2.79619094256,3.68510518741,4.40799691484,4.94378237175,5.29257650426,5.47327388708,5.5195236448,5.47463279486,5.38598968559,5.29960477103,5.25532239365,5.28316676305,5.40115202297,5.61471887648,5.91777343377,6.29511791313,6.72590052595,7.18759528927,7.65996849625,8.12850527494,8.58685438177,9.03798888524,9.49395377854,9.97425456121,10.503110173,11.1059301155,11.8054654318,12.618118545,13.550875537,14.5992494399,15.7465028578,16.9642662478,18.2145025067,19.4526097197,20.6313220431,21.7049798096,22.6337039489,23.3870293372,23.9466223109,24.307819043,24.4798594218,24.4848389183,24.3555414307,24.132433037,23.8601765022,23.5840604184,23.3467220014,23.1854822014,23.1305152743,23.2039562366,23.4199247594,23.7853284533,24.3012150374,24.964381543,25.7689270987,26.7074590521,27.7717310311,28.952600081,30.2393239152,31.6183568808,33.0719193104,34.5766869087,36.1029604513,37.6146284795,39.0701347453,40.4245231703,41.6324750242,42.6520959911,43.4490745808,44.0007363343,44.299475999,44.3550730794,44.195488631,43.8658971576,43.4259104233,42.9451735946,42.4977262644,42.1556896527,41.9829407898,42.0294494831,42.3268819041,42.8859262664,43.6955928898,44.7245119835,45.924029454,47.2327134394,48.5817546846,49.900684769,51.122848918,52.1901460332,53.0566714236,53.6910466439,54.0773738064,54.2148893202,54.1165008111,53.8064647653,53.3175004815,52.6876405393,51.9570935485,51.165348086,50.3486861014,49.5382091904,48.7584208885,48.0263595767,47.3512440684,46.7345785447,46.170662794,45.647461953,45.1477992418,44.650837602,44.1338059323,43.573900865,42.9502585366,42.2458503323,41.4491240753,40.5552011804,39.5664618926,38.4924089964,37.3487900466,36.1560650225,34.9374103239,33.716530059,32.5155838145,31.3535255624,30.2450793297,29.2004629015,28.2258309528,27.3242710343,26.4970788016,25.7449862744,25.0690307528,24.470830334,23.9521599501,23.5138754953,23.1543842177,22.8679783693,22.6434120306,22.4630930483,22.3031807925,22.1347374758,21.9259000475,21.6448534252,21.2632285106,20.7594497208,20.1215352949,19.348913346,18.4529468493,17.4560396418,16.3893951902,15.2896914099,14.1950915739,13.1411111423,12.1568872947,11.262345139,10.4666267476,9.76796405144,9.15496320575,8.60906177453,8.10775550241,7.62809476439,7.14993463449,6.65848489848,6.14583326153,5.61128466564,5.06054583819,4.50395898456,3.95412565795,3.42334132708,2.9212731615,2.45325938898,2.01949904814,1.61525339778,1.23201609564,0.859452452535,0.487782775383,0.11021129263,-0.275008086132,-0.663224664779,-1.0430111372,-1.39685595298,-1.7028726723,-1.93731665974,-2.07757250888,-2.10519572287,-2.00857417507,-1.78482540814,-1.44066022983,-0.992103931012,-0.463145845005,0.116446842525,0.713794251292,1.2956356369,1.83073364979,2.29164298586,2.65567245623,2.90503178225,3.02631262088,3.00957947128,2.84741793683,2.53429201936,2.06649638782,1.44286322943,0.666216396762,-0.254613985881,-1.30256418463,-2.45035727913,-3.65927368203,-4.87913232743,-6.04981702405,-7.10448402711,-7.97434037667,-8.59462291934,-8.91117681425,-8.88687152161,-8.50703524251,-7.78315216696,-6.75424500727,-5.48563051426,-4.06504525364,-2.59644542336,-1.19204564877,0.0366529294531,0.988001158541,1.57866250919,1.75063546108,1.47622951004,0.760586865747,-0.35843184966,-1.81294906283,-3.51009512908,-5.33891032973,-7.17854035198,-8.90705845072,-10.4102232085,-11.589515141,-12.3688824005,-12.6997540192,-12.5640327526,-11.9749409901,-10.9757462708,-9.63652651807,-8.04924466734,-6.32148881125,-4.5693000871,-2.90955711622
2,-4.14307434836,-10.4803180707,-15.3059999158,-18.7723549074,-21.0711235245,-22.4203271667,-23.0501522838,-23.1891211523,-23.0516166112,-22.8276113966,-22.6751652584,-22.7159373226,-23.0336592068,-23.6752608683,-24.6541589148,-25.9551156274,-27.5400531426,-29.3542478812,-31.3324161433,-33.4043126886,-35.4995829909,-37.5517240989,-39.5011100287,-41.2971198663,-42.8994667861,-44.2788613429,-45.4171507341,-46.307058641,-46.9516152855,-47.3633275114,-47.5631076262,-47.5789660662,-47.444477778,-47.1970500302,-46.876041628,-46.5208026757,-46.1687164378,-45.8533308519,-45.6026695241,-45.4378129459,-45.3718401502,-45.4092160967,-45.5456962103,-45.7687932072,-46.0588123063,-46.3904127367,-46.7346027312,-47.0610297331,-47.3403941687,-47.5467982874,-47.6598429583,-47.6663045341,-47.5612589504,-47.3485677211,-47.0406956471,-46.6578867666,-46.2267765181,-45.7785580273,-45.3468450581,-44.9653834363,-44.6657604656,-44.4752541596,-44.4149566311,-44.4983006046,-44.7301114491,-45.106292121,-45.6142171234,-46.2338592622,-46.9396007665,-47.7025962772,-48.4934729296,-49.285088238,-50.0550340903,-50.7875842556,-51.4748356398,-52.1168847853,-52.7209990503,-53.2998706322,-53.8691637727,-54.44466464,-55.0394055353,-55.6611499438,-56.3105872546,-56.9804971978,-57.6560137572,-58.3159640573,-58.9351028201,-59.486932593,-59.9467163308,-60.2942669023,-60.5161417819,-60.6069729326,-60.5698037369,-60.4154622942,-60.1611470746,-59.8285130493,-59.4416065221,-59.0249960673,-58.6023860608,-58.1958888352,-57.8259907958,-57.5121023053,-57.2734579029,-57.1300560339,-57.1033113008,-57.2161412528,-57.4923151742,-57.9550341019,-58.6248618382,-59.5172570374,-60.6400427066,-61.9911783628,-63.5571707743,-65.3123813015,-67.2193771833,-69.2303486951,-71.2894910513,-73.3361435952,-75.3084000824,-77.1468603746,-78.7981899509,-80.2181892986,-81.3741448787,-82.2463258174,-82.8285907313,-83.1281609222,-83.1646854167,-82.9687610869,-82.5800761252,-82.0453241628,-81.4160016074,-80.7461657253,-80.0902054107,-79.5006641733,-79.0261538095,-78.7094029329,-78.5854926143,-78.6803389682,-79.0094882537,-79.5772931759,-80.3765386235,-81.3885795488,-82.5840411094,-83.9241097454,-85.3624128016,-86.8474446152,-88.3254515717,-89.7436418022,-91.0535418628,-92.2142876471,-93.1956141414,-93.9803023023,-94.5658545564,-94.9652054597,-95.2063315063,-95.3307022541,-95.3906093268,-95.4455131649,-95.5576500892,-95.787232821,-96.1876430742,-96.8010424986,-97.6548096348,-98.7591451486,-100.106083431,-101.670018861,-103.409713986,-105.271618108,-107.194200962,-109.112909849,-110.965301225,-112.695887765,-114.260281703,-115.628299392,-116.785807183,-117.735216636,-118.494658694,-119.095967533,-119.581678301,-120.00128957,-120.407066519,-120.849671996,-121.373915574,-122.01490803,-122.794898688,-123.721050508,-124.784366092,-125.959911714,-127.208394563,-128.47903467,-129.713547254,-130.850928704,-131.832637683,-132.607698864,-133.137243527,-133.398045124,-133.384706927,-133.1103016,-132.605428942,-131.915822809,-131.09877592,-130.218742053,-129.342510863,-128.534335979,-127.851347482,-127.339514956,-127.030363323,-126.938589866,-127.060687666,-127.374643112,-127.840735946,-128.403424718,-128.994247116,-129.535605885,-129.945251414,-130.141216214,-130.046908981,-129.596040943,-128.737040156,-127.436616674,-125.68217913,-123.482874326,-120.869123774,-117.890656261,-114.613170341,-111.113889247,-107.476377617,-103.785061363,-100.119920049,-96.551801097,-93.1387381265,-89.9235475147,-86.932838254,-84.1774156795,-81.6539086604,-79.347322984,-77.2341390418,-75.2855415683,-73.4703962366,-71.7576661528,-70.1180766417,-68.5249701726,-66.954424127,-65.3848130033,-63.7960685769,-62.1689182468,-60.4843628955,-58.7235977014,-56.8684938379,-54.9026593285,-52.812996935,-50.5915878383,-48.2376617255,-45.7593735018,-43.1750980529,-40.5139786137,-37.8155208498,-35.1281114086,-32.5064516021,-30.0080253629,-27.6888526025,-25.5988978889,-23.7775917014,-22.2499604274,-21.0238390403,-20.088551954,-19.4152981975,-18.9592838941,-18.663435541,-18.4633348373,-18.2928708792,-18.0900296115,-17.8022401682,-17.3907657254,-16.8337457317,-16.1276460809,-15.2870342041,-14.3427514248,-13.3386941487,-12.3275309821,-11.3657685614,-10.5086285246,-9.80520549296,-9.29433692403,-9.00153094015,-8.93717596823,-9.09611253132,-9.45850439167,-9.99182504144,-10.6536920867,-11.3952427005,-12.1647445956,-12.9111685781,-13.5874976865,-14.153602117,-14.5785594809,-14.8423410887,-14.9368152437,-14.8660395058,-14.6458294391,-14.30260678,-13.8715510626,-13.3941107224,-12.9149753451,-12.4786683652,-12.1259820627,-11.8905326512,-11.7957491543,-11.8526132099,-12.0584293587,-12.396824761,-12.8390599699,-13.346592459,-13.874690428,-14.376764639,-14.8089869416,-15.1347086699,-15.3281890897,-15.3771976031,-15.2841617379,-15.0656873833,-14.7504621271,-14.3757442997,-13.9828137227,-13.6118912307,-13.2971051396,-13.0620852537,-12.9166991354,-12.8553193881,-12.8568389035,-12.8864523598,-12.8990191157,-12.8436393982,-12.6689361822,-12.3284592019,-11.7856268017,-11.017696012,-10.018388824,-8.7989798892,-7.38783866166,-5.82858811898,-4.17716878658,-2.49816649837,-0.860772810636,0.665292315449,2.01363700094,3.12465587169,3.9484852058,4.44739892841,4.59761159523,4.39045358798,3.83287089614,2.947190639,1.77009611481,0.350780163074,-1.25170323726,-2.97179364409,-4.74129764166,-6.49349991293,-8.1671546957,-9.70996276021,-11.0811552743,-12.2528812873,-13.2102222539,-13.949815391,-14.4772309758,-14.8033898366,-14.9404054051,-14.8972796744,-14.6758758263,-14.2675425796,-13.6506904056,-12.78952956,-11.6340811369,-10.1214674364,-8.17837890686,-5.72450811868,-2.67664910696,1.0469005385,5.52201180745,10.8148063354,16.9783887786,24.0503338605,32.0508788486,40.9816290327,50.8244782648,61.5404006168,73.0677959261,85.3201745053,98.1831373574,111.510830659,125.122300094,138.798405863,152.280140667,165.26927787,177.432230522,188.407805451,197.819195113,205.290092992,210.464297277,213.027646975,212.730683851,209.41011775,203.007044927,193.57996323,181.310952556,166.503922509,149.574519903,131.032060388,111.454609874,91.4590009533,71.668048575,52.6774745545,35.0250402331,19.164132205,5.44358792479,-5.90505204842,-14.7723474269,-21.1679634992,-25.2106185129,-27.1121877398,-27.1575047227,-25.6815683438,-23.0458825054,-19.6155436448,-15.7384778976,-11.7279453349,-7.84910330865,-4.31008113243,-1.25768626633,1.2224445421,3.1017037249,4.40105497859,5.18109642728,5.53058406921,5.55439075291,5.36184448732,5.05629230372,4.72657796831,4.44091526366,4.24340125732,4.15316886963,4.16595011574,4.25763384126,4.38927216047,4.5129270049,4.57775115359,4.53575699037,4.34682519673,3.98262638913,3.42925420272,2.68848547492,1.77768462503,0.728452899369,-0.415809933083,-1.60321094597,-2.77727449635,-3.88116433121,-4.86190358692,-5.67427328687,-6.28408456234,-6.67055985044,-6.82762583499,-6.76401271886,-6.50216175128,-6.07605304359,-5.52816483246,-4.90585165142,-4.25747450556,-3.62862791973,-3.05878741428,-2.57865015883,-2.2083671127,-1.95677495293,-1.82164049495,-1.79083959995,-1.84431554542,-1.95660419973,-2.09967773483,-2.2458454754,-2.37045859297,-2.45419210841,-2.48471966356,-2.45765035966,-2.37665967003,-2.25281513913,-2.10316852617,-1.94875375565,-1.81218731543,-1.71510694542,-1.67569945857,-1.70655653383,-1.81305965821,-1.99243715919,-2.2335652015,-2.51750992317,-2.81873904365,-3.10687670743,-3.34884082166,-3.5111895755,-3.56251073917,-3.4757077773,-3.23006308592,-2.81298345213,-2.22135107602,-1.46241346433,-0.554148770002,0.474956234478,1.5867746035,2.73509937983,3.86791048924,4.93031280341,5.86804020637,6.63133905961,7.17896303351,7.48194387488,7.52676281141,7.31754585721,6.87695022025,6.24550026211,5.4792659678,4.64594398884,3.81958415361,3.07438117332,2.47809747042,2.0857738671,1.93439987269,2.03914412371,2.39159237772,2.96022480367,3.69311690715,4.52260459939,5.37144641853,6.1598691315,6.81280961936,7.26666709983,7.47494746065,7.4123028975,7.07663056213,6.48907868643,5.69200259348,4.74510039298,3.72012255944,2.69467496817,1.74570786014,0.943295535823,0.345262833068,-0.00688789449774,-0.090437899721,0.0978443961181,0.542730627049,1.21310025723,2.06571880539,3.04979345994,4.11181749844,5.20021235068,6.26932560177,7.2824375903,8.21355668286,9.04792898712,9.78133566796,10.4183830588,10.9700914855,11.4511457711,11.8771773729,12.2624062207,12.6178886725,12.9505119238,13.2627630899,13.5532004151,13.8174775752,14.0497264254,14.2440889664,14.3962008762,14.5044589787,14.5709454274,14.6019257658,14.6078826124,14.6030900343,14.6047753021,14.6319536045,14.7040545593,14.8394823963,15.0542598401,15.3608959909,15.7675906318,16.2778440194,16.8904880775,17.6001005611,18.3977183804,19.2717390747,20.2088954026,21.1952058363,22.2168359768,23.2608415915,24.3157920396,25.3722851922,26.4233589231,27.4647837416,28.495195482,29.5160074689,30.5310376199,31.5458023343,32.5664653422,33.5984811682,34.6450319089,35.7054136959,36.7735759019,37.8370418086,38.8764347833,39.8657930451,40.7737792679,41.5657868607,42.2068278596,42.6649764967,42.915055102,42.9421969707,42.7449082063,42.3372744298,41.7500127297,41.0301494094,40.2392072852,39.4499099938,38.7415494454,38.194305855,37.8829429297,37.8704067655,38.2019191231,38.900160403,39.9620768569,41.3577207253,43.0313510499,44.9048053719,46.8829222373,48.8605772405,50.7307165561,52.3926537524,53.7598543686,54.7664757804,55.3720546075,55.5639275016,55.3572117478,54.7924311241,53.9311179741,52.8499238742,51.6339039422,50.3696884395,49.1392154637,48.0145772267,47.0543479527,46.3015418256,45.7831284045,45.5108441158,45.482909233,45.6862066806,46.0985049036,46.6904010822,47.426800943,48.2679084118,49.1698423426,50.0851025581,50.9631553654,51.751391985,52.3966365094,52.847259579,53.0558151714,52.98198906,52.5955535662,51.8789808486,50.8293820691,49.4595078256,47.797653341,45.886441719,43.7805894328,41.5438701641,39.2455698826,36.956757305,34.7466767676,32.6795104637,30.8116672695,29.1896553429,27.8485068628,26.8106645423,26.0852227732,25.6674437715,25.5385330363,25.6657419123,26.0029448158,26.4918892662,27.0643162477,27.6450842561,28.1563049959,28.5223302294,28.675248245,28.5603906055,28.1412484343,27.4031766221,26.3553355495,25.0304810326,23.4824484425,21.7814577228,20.0076534275,18.2435438413,16.5661742102,15.0399306071,13.7108102576,12.6028188482,11.7168908761,11.0324131016,10.5111069954,10.1027374055,9.75190036105,9.40503160899,9.01678260765,8.55502826568,8.00398028498,7.36514848078,6.6561797143,5.90786904222,5.15984471639,4.45555264724,3.83719565958,3.34122213432,2.9948248618,2.81373107826,2.80136945255,2.94931825494,3.23879455195,3.64285277333,4.12892923118,4.66139481176,5.20385061306,5.72100423631,6.18007796258,6.55180395573,6.81113800644,6.93785906004,6.91721100505,6.74068913172,6.40698842451,5.92303296208,5.30491610596,4.57851924946,3.77955715773,2.95282719228,2.15051564267,1.42952612111,0.847925757833,0.4607355286,0.315402653556,0.447369369735,0.876181755791,1.60255977751,2.60677871571,3.84860302937,5.26888019575,6.79275755777,8.3343412482,9.80248282995,11.107265595,12.1666773677,12.9129087184,13.2977127423,13.2963117514,12.9094409837,12.1632772341,11.1071997589,9.80955107492,8.35177875278,6.82151668876,5.30528048444,3.88149014122,2.61448933227,1.55011070852,0.713157768017,0.106959565564,-0.285068195694,-0.496127301921,-0.571443026574,-0.562916344052,-0.523607073199,-0.502604057737,-0.540748220833,-0.667537828952,-0.899384009134,-1.23922231361,-1.67734462424,-2.19321083147,-2.75793999122,-3.33716724385,-3.89398030979,-4.39170702099,-4.796398518,-5.07892556902,-5.21666381565,-5.19477834119,-5.00712667903,-4.65678772281,-4.15620305588,-3.52689976032
2,-22.8986718772,-23.5025454577,-23.9726290271,-24.4217571158,-24.930716355,-25.5486746821,-26.2959934224,-27.1689240623,-28.1455733964,-29.1924698786,-30.2710768184,-31.3436672076,-32.3780911925,-33.351119095,-34.2502153787,-35.0737731531,-35.8299944454,-36.5347211466,-37.208594477,-37.8739442861,-38.5517876412,-39.2592572022,-40.0076935872,-40.8015326083,-41.6380091427,-42.5075970951,-43.3950226547,-44.2806376888,-45.1419290864,-45.9549686896,-46.6956698637,-47.3407965897,-47.8687508006,-48.2602247927,-48.4988339326,-48.5718351017,-48.4709926109,-48.193587523,-47.7434939001,-47.1321815123,-46.3794608291,-45.5137702986,-44.5718218461,-43.5974690846,-42.6397417746,-41.7500935802,-40.9790271639,-40.3723752792,-39.9676095299,-39.7906005282,-39.8532490686,-40.1523406227,-40.6698487778,-41.3747418977,-42.2261539627,-43.1775915852,-44.1816909202,-45.1949350488,-46.1817149958,-47.1171791189,-47.9884674342,-48.7941549965,-49.5420005866,-50.2453694285,-50.9189223537,-51.5742957907,-52.2165102508,-52.8417343462,-53.4368136891,-53.9806847891,-54.447481165,-54.8108546939,-55.048827925,-55.1483981795,-55.1091475347,-54.9452669034,-54.6856484277,-54.3719940554,-54.0551789469,-53.7903491291,-53.6313883727,-53.6254423911,-53.8081416221,-54.200036274,-54.804578267,-55.607786085,-56.5795387621,-57.6762855688,-58.8448412937,-60.0268681534,-61.1636222944,-62.200558369,-63.0914295192,-63.8015819025,-64.310215015,-64.6114579,-64.7141963358,-64.6406776204,-64.4240165883,-64.1048249624,-63.7272779943,-63.3350054925,-62.9672341635,-62.655601067,-62.42199592,-62.2776741472,-62.2237245621,-62.2527961726,-62.3518149177,-62.5052819826,-62.6986655696,-62.9213928219,-63.1690196679,-63.4442910838,-63.756978692,-64.1225666002,-64.5600198982,-65.0889887486,-65.7268596448,-66.4860607143,-67.3719671878,-68.3816512906,-69.5035966558,-70.7183699317,-72.0001282893,-73.3187537718,-74.6423515776,-75.9398317092,-77.1833090711,-78.3500989879,-79.4241439255,-80.3967738023,-81.2667698459,-82.039766525,-82.727085607,-83.3441488755,-83.9086579911,-84.4387558569,-84.9513873171,-85.4610535242,-85.9791037623,-86.5136365072,-87.0699985193,-87.6517897827,-88.2622152619,-88.9055800969,-89.5887061945,-90.3220541124,-91.1203617346,-92.0026578465,-92.9915723937,-94.1119431371,-95.3888047518,-96.8449313968,-98.4981751891,-100.358888967,-102.42773372,-104.694145972,-107.135680959,-109.718360957,-112.398054486,-115.122802502,-117.835903881,-120.479486751,-122.998235689,-125.342925999,-127.473438449,-129.360988992,-130.989400256,-132.355352644,-133.467667184,-134.345773573,-135.017591038,-135.517087441,-135.881780713,-136.150409822,-136.36093971,-136.548989363,-136.746698368,-136.981987227,-137.278127575,-137.653522606,-138.121602712,-138.690761215,-139.364283678,-140.140255565,-141.011461814,-141.965313851,-142.983851601,-144.043868485,-145.117197163,-146.171176567,-147.169302975,-148.072056106,-148.837890395,-149.424391949,-149.789618767,-149.893656518,-149.700423839,-149.179740044,-148.309619513,-147.078683738,-145.488495245,-143.555535445,-141.312492438,-138.808514839,-136.108137224,-133.288694445,-130.436205853,-127.639905546,-124.985792782,-122.549747494,-120.390872007,-118.54576108,-117.024358182,-115.807927941,-114.849477211,-114.076714004,-113.397374977,-112.706508808,-111.895101602,-110.85929118,-109.509351601,-107.777641314,-105.624794804,-103.043589007,-100.060117714,-96.7321413795,-93.1447254822,-89.4035167422,-85.6262124482,-81.9329363965,-78.436332416,-75.232216124,-72.3915859229,-69.9546883796,-67.9276682461,-66.2821210893,-64.9576229366,-63.8670561496,-62.9043053456,-61.9536828438,-60.9002791982,-59.64033679,-58.0907240409,-56.1966490778,-53.9368919736,-51.3260440397,-48.4135044334,-45.2792764291,-42.0269020407,-38.7741463962,-35.6422656055,-32.7448416441,-30.1772300425,-28.0076338957,-26.2706910372,-24.9642465337,-24.0496927389,-23.4559141932,-23.0865035955,-22.8295555905,-22.5690415087,-22.1965655786,-21.6222387501,-20.7834995808,-19.6509568251,-18.2306923581,-16.5628911356,-14.7170922412,-12.784720545,-10.8698161609,-9.07900493172,-7.51174736924,-6.25178558649,-5.36050983801,-4.87272364085,-4.79502987416,-5.10681209952,-5.7635599377,-6.70209454043,-7.84709935089,-9.11826306804,-10.4373066588,-11.7342017874,-12.9519948242,-14.0498204922,-15.0039050494,-15.8065961305,-16.4636861104,-16.9904892352,-17.4072656567,-17.7346419549,-17.9896514627,-18.1829120492,-18.3172864345,-18.3881513893,-18.3851651185,-18.2951991782,-18.1059254984,-17.8094489583,-17.4053694054,-16.9027468002,-16.3206152441,-15.6869175325,-15.0359744476,-14.4048237623,-13.8289297772,-13.3378528661,-12.9514715324,-12.6772721443,-12.5090794443,-12.4274154812,-12.4014689056,-12.3924535144,-12.3579568756,-12.2567483661,-12.053450274,-11.7224893246,-11.2508428616,-10.6392643915,-9.90189293437,-9.06438326591,-8.16089861497,-7.23044786841,-6.3131034476,-5.44659919426,-4.66369297853,-3.99051338636,-3.44592804975,-3.04180663154,-2.78393045602,-2.67323805977,-2.70709368468,-2.88031510937,-3.1857820749,-3.61454810472,-4.15547949934,-4.79453267325,-5.51384669732,-6.29086790618,-7.09773637053,-7.90115010403,-8.6628833398,-9.34107243197,-9.89230052789,-10.2744152186,-10.4499089396,-10.3895896119,-10.0761816752,-9.507440637,-8.69835305099,-7.68203973618,-6.50908553311,-5.24517501188,-3.96710079559,-2.75740334478,-1.69807061268,-0.863849085908,-0.315777787556,-0.0955460691592,-0.22119559182,-0.684546437218,-1.45054449886,-2.45852677748,-3.62521143905,-4.84906786268,-6.01562873281,-7.00327978447,-7.68909690973,-7.95437579154,-7.68958948991,-6.79858908172,-5.20191568029,-2.83911726814,0.33002732918,4.32546210252,9.1480322462,14.7818582044,21.1977602425,28.3574447222,36.2180155407,44.7362521005,53.8720279917,63.5902550077,73.860836669,84.6563017554,95.9470452277,107.694404052,119.842104981,132.306904696,144.969466068,157.666647997,170.18640732,182.266406008,193.597183797,203.830407487,212.592267382,219.501592913,224.19174549,226.334866218,225.666662548,222.009664409,215.29281266,205.565390846,193.003681188,177.909292943,160.698820912,141.885265972,122.052399399,101.823894154,81.829510894,62.6708706206,44.8893533028,28.9384429571,15.1624269368,3.78279889299,-5.10693183556,-11.5379967272,-15.6553086442,-17.6997704358,-17.9855808293,-16.8744634149,-14.7488769109,-11.9862296406,-8.93592578174,-5.90073363681,-3.12351643224,-0.779845347473,1.02352590965,2.2448494762,2.89917392655,3.04696217293,2.78089798526,2.21223031503,1.45786492735,0.629179490502,-0.176750010759,-0.883130499226,-1.4365553447,-1.80740799348,-1.98795990357,-1.98871832341,-1.83368029044,-1.55518538584,-1.18902811184,-0.77039132096,-0.331001568304,0.102298765957,0.507594645878,0.866805945203,1.16388365696,1.38282496251,1.50605710167,1.51366980171,1.38382606431,1.09447343246,0.626242982403,-0.0338041202327,-0.888108278261,-1.92486152963,-3.11523952718,-4.4122045929,-5.75130532886,-7.0536666017,-8.23109410285,-9.19294392487,-9.85416313039,-10.1437219562,-10.0125553869,-9.44012550535,-8.43880965902,-7.05550558949,-5.37010619567,-3.49080855735,-1.54655284807,0.322799145846,1.977676254,3.29035897724,4.15578698188,4.50057231651,4.28935558309,3.52791477726,2.26276925652,0.577373294321,-1.41467649562,-3.5787247259,-5.76955300841,-7.84232876078,-9.66307201131,-11.1178205477,-12.1198561904,-12.614575035,-12.5818132783,-12.0356537638,-11.0219202106,-9.61370753222,-7.90539502081,-6.00564536594,-4.02990930818,-2.09293738629,-0.301752219488,1.25053611349,2.48977491865,3.36446983734,3.84802895042,3.93951959328,3.6629758093,3.06534655626,2.21321347658,1.1884389354,0.08293787655,-1.00719382878,-1.98791598742,-2.77351944824,-3.29257376571,-3.49315824024,-3.34699118111,-2.85210669995,-2.03379413626,-0.943610543147,0.343601630124,1.73461603178,3.12440926295,4.40403719599,5.469253966,6.229205861,6.61446145796,6.58363664959,6.12794997486,5.27320015816,4.07888126463,2.63441719659,1.05277494796,-0.538028174246,-2.00480421601,-3.2196124893,-4.06982465559,-4.46699218049,-4.35379769263,-3.70856117556,-2.54700161872,-0.921198850132,1.08406753417,3.35722856111,5.76756850772,8.17400111603,10.4343594105,12.4146065936,13.9974342161,15.0897856731,15.6289146795,15.5866544818,14.9716375426,13.8292768407,12.2394100014,10.3116242246,8.1784248909,5.98657726861,3.88712482319,2.02474918111,0.527262278038,-0.503913196371,-1.00143321343,-0.937155462187,-0.324156125444,0.784627150234,2.30107285548,4.10948915278,6.07647876411,8.06214162919,9.93157400671,11.5656124706,12.8698780011,13.7813816164,14.2722276274,14.3502549756,14.0567521403,13.4616333966,12.6566504883,11.7473233079,10.8443077843,10.0548906495,9.47522580691,9.18382184692,9.23666681801,9.66424189516,10.4705344928,11.6340179957,13.1104260017,14.8370228424,16.7379698198,18.7303180253,20.7301307127,22.6582534628,24.4453065739,26.0355646893,27.3895033502,28.4849181041,29.3166455202,29.8950253738,30.2433317368,30.3944646054,30.3872331202,30.262577398,30.0600681537,29.8149894341,29.556247599,29.30526006,29.0758668667,28.8751897925,28.7052536714,28.5650996986,28.4530722761,28.3689552281,28.3156684983,28.3003059995,28.3343886538,28.4333113782,28.6150658438,28.8984102009,29.3007228796,29.8358136421,30.5119684818,31.3304761568,32.2848261419,33.360686023,34.5366690455,35.7858011057,37.0775053833,38.3798574126,39.6618361526,40.8953126869,42.0565730142,43.1272518778,44.0946435993,44.9514377892,45.694992131,46.3262963795,46.8488004248,47.2672756938,47.5868550651,47.8123550213,47.9479305987,47.997057113,47.9627821207,47.8481549036,47.6567239975,47.3929967241,47.0627750735,46.6733132933,46.2332764997,45.7525095487,45.24164682,44.7116053616,44.1730076561,43.6355788458,43.1075590484,42.5951661505,42.1021395809,41.6293920519,41.1747945267,40.7331193484,40.2961667816,39.8531001462,39.3910127119,38.8957428895,38.3529393246,37.7493510006,37.0742786596,36.3210763144,35.4885436123,34.5820131832,33.6139245745,32.6036979457,31.5767804074,30.5628321786,29.5931375889,28.6974503603,27.9005930906,27.2192069551,26.6590729433,26.2133919433,25.8623193105,25.5739117497,25.3064791256,25.0121629954,24.641408613,24.1478767014,23.4932706365,22.6515441411,21.6120079159,20.3809666927,18.9816787195,17.4526183992,15.8442157276,14.2144181254,12.6235489878,11.1290072706,9.78035695709,8.6152962043,7.6568826699,6.91223932413,6.37279387119,6.01593677039,5.80783863842,5.70706429653,5.66856865082,5.64766254153,5.60359022254,5.50245171137,5.31931397372,5.03946321078,4.65883716519,4.18372927746,3.62987384639,3.02101158056,2.38701398042,1.76163083599,1.17993161572,0.675543469716,0.277839898365,0.00928963674072,-0.116784754009,-0.0977828312906,0.0574811797078,0.329106506344,0.687481274961,1.09561142188,1.5121993425,1.89518468425,2.20540954072,2.41005515503,2.48551532073,2.4194213549,2.21161395022,1.8739657452,1.42908695079,0.908079228913,0.347618622843,-0.213276038779,-0.736414313073,-1.18721394282,-1.53685579673,-1.76370925079,-1.85405360348,-1.80222319774,-1.61035652108,-1.28792583207,-0.851172424938,-0.322493398512,0.270256897998,0.89465151624,1.51489216638,2.09344613471,2.59318607058,2.98001465995,3.22584997008,3.31173690714,3.23075568769,2.99033910075,2.61360188164,2.13933537371,1.62042771145,1.12062501709,0.70973733297,0.457594085578,0.427243847694,0.668045945574,1.20939167328,2.05579995824,3.18404536623,4.54279812441,6.05500387124,7.62293477352,9.13554070141,10.4774586958,11.5388365528,12.2250178237,12.4651329332,12.2187420114,11.4798648738,10.2779895068,8.67594459192,6.76482405419,4.65643294794,2.47395787361,0.341730326389,-1.62496701262,-3.32911072576,-4.69932427022,-5.69478606449,-6.30724892779,-6.56004919786,-6.50428156634,-6.21259232071,-5.77126966107,-5.27146077878,-4.80040573387,-4.43354286885
2,19.1496626256,10.0254713028,2.15972813372,-4.4917944871,-10.0003509462,-14.4610992871,-17.989175875,-20.7149695818,-22.7786678723,-24.3242449904,-25.4931680501,-26.418187098,-27.2176291225,-27.9906196989,-28.8136054476,-29.7384511962,-30.7922503841,-31.9788326936,-33.2817973376,-34.6687614359,-36.0964059893,-37.5158390736,-38.8777841085,-40.1371417948,-41.256563352,-42.2088005885,-42.9777505842,-43.558270247,-43.9549767691,-44.1803528459,-44.2525246911,-44.1930700734,-44.0251476871,-43.7721332397,-43.456823671,-43.1011528918,-42.7262707768,-42.352784409,-42.0009499038,-41.6906301533,-41.4408900511,-41.2691764782,-41.1901159968,-41.2140494262,-41.3454992859,-41.5818220933,-41.9123203794,-42.3180686058,-42.7726387854,-43.2438011755,-43.6961387283,-44.0943735955,-44.4070836474,-44.6104060034,-44.6912942948,-44.6499193412,-44.5008749406,-44.2729635683,-44.0074810963,-43.7550832574,-43.5714841431,-43.5123891106,-43.6281788231,-43.9589166559,-44.5302341695,-45.350556768,-46.4099761319,-47.6808812055,-49.1202548444,-50.6733572408,-52.278372861,-53.8715095681,-55.3920129136,-56.7865932184,-58.0128497227,-59.0414024832,-59.8565947244,-60.4557911334,-60.84745565,-61.0483292801,-61.0801278708,-60.9662274338,-60.7287922339,-60.3867286498,-59.9547244209,-59.44347326,-58.8610082119,-58.2148959678,-57.5149028692,-56.7756546331,-56.0187932186,-55.2741928607,-54.5799272959,-53.9808625715,-53.5259547875,-53.2645243608,-53.2419244525,-53.4950972326,-54.0485092888,-54.9108852205,-56.0730385635,-57.5069609617,-59.1662022834,-60.9874762786,-62.8933659779,-64.7959754852,-66.6013666253,-68.2146136249,-69.5452922088,-70.5131823986,-71.0539063111,-71.1241526355,-70.7060765984,-69.8104315189,-68.4780073548,-66.7790365702,-64.8103790097,-62.6905017988,-60.5525017927,-58.5356430179,-56.7760644874,-55.3974248705,-54.5022720919,-54.1648567484,-54.4259630126,-55.2901354221,-56.7254645338,-58.6658860468,-61.0157667681,-63.6564075742,-66.4539902363,-69.2684275033,-71.9625382847,-74.4109579382,-76.5082064735,-78.1753769342,-79.3649764143,-80.0635572954,-80.2919178968,-80.1028260243,-79.576415273,-78.8136050261,-77.928078633,-77.0374963662,-76.254699014,-75.6796594712,-75.3928588156,-75.4506080291,-75.8826266616,-76.69195345,-77.8570319877,-79.3356150612,-81.0699856948,-82.9929137442,-85.0337568197,-87.124166939,-89.2029656351,-91.2198814275,-93.1379842531,-94.9347833324,-96.6020643747,-98.1446215803,-99.5780890517,-100.92610097,-102.21702039,-103.480482583,-104.744005646,-106.029926652,-107.352918553,-108.718321184,-110.121471117,-111.548136458,-112.976058124,-114.377479831,-115.722431276,-116.982430917,-118.134211635,-119.163054242,-120.065343052,-120.850031169,-121.53881207,-122.164927159,-122.770682153,-123.403883604,-124.113524801,-124.945133825,-125.936235004,-127.112363191,-128.484009668,-130.044777882,-131.770902223,-133.622152921,-135.544033104,-137.471082285,-139.33103719,-141.049561169,-142.555228988,-143.784438206,-144.685910999,-145.224456756,-145.383694698,-145.167494266,-144.599980691,-143.724067429,-142.598602258,-141.294333023,-139.888997111,-138.461906073,-137.088429668,-135.834783034,-134.753490099,-133.879839984,-133.229575592,-132.797960372,-132.560267448,-132.473633246,-132.480124196,-132.51078748,-132.49039935,-132.34258769,-131.994987171,-131.384084332,-130.459427117,-129.186911646,-127.550920283,-125.555168069,-123.222213621,-120.5916962,-117.717461181,-114.663820311,-111.501251515,-108.30186956,-105.134992286,-102.063090966,-99.1383561866,-96.4000440157,-93.8727026222,-91.5653250909,-89.4714322799,-87.5700572201,-85.8275736342,-84.2002794489,-82.6376079856,-81.0857950943,-79.4917840873,-77.8071092367,-75.9914716733,-74.0157173013,-71.8639508466,-69.5345752512,-67.0401287671,-64.4058974596,-61.6674003931,-58.866968243,-56.0497500361,-53.2595705223,-50.5351045507,-47.9068200427,-45.3950609306,-43.0095004888,-40.7500106141,-38.6087903145,-36.5734087142,-34.6302761473,-32.7679879101,-30.9800049298,-29.2662452071,-27.6333436504,-26.0935641515,-24.6625744674,-23.3564788395,-22.1886123589,-21.1666193669,-20.2902699812,-19.5503351488,-18.9286720968,-18.3995003751,-17.9316992113,-17.4918449375,-17.047638606,-16.5713479673,-16.0429007069,-15.4523118367,-14.8012017698,-14.1032568222,-13.3835925338,-12.6770903463,-12.0258748452,-11.476167808,-11.0747880479,-10.8655624073,-10.8858818476,-11.163591909,-11.7143645566,-12.5396699853,-13.6254555657,-14.9416389802,-16.4425212899,-18.0682084604,-19.7470846358,-21.3993021813,-22.9411473905,-24.2900223977,-25.3696760863,-26.1152440316,-26.4776392704,-26.4268813569,-25.9540572998,-25.0717586521,-23.8130093972,-22.228861224,-20.3849610535,-18.3574726922,-16.2287529577,-14.0831457279,-12.0031770457,-10.0663283386,-8.34245284544,-6.89180117943,-5.76355049483,-4.99469742153,-4.60918091184,-4.61714386695,-5.01431192741,-5.78154920192,-6.88472649575,-8.27509036035,-9.89033599961,-11.6565536303,-13.4911340016,-15.3065924901,-17.0151214756,-18.5335346147,-19.7881538617,-20.7191371644,-21.2837699802,-21.4583521678,-21.2384914045,-20.6378358819,-19.6855015861,-18.4226294609,-16.8986095364,-15.1675130289,-13.2851798225,-11.3072374766,-9.28811388428,-7.28089154698,-5.33767858281,-3.51007228079,-1.84928258893,-0.405565376288,0.77322832471,1.64398135144,2.17130801719,2.33084129262,2.11232749651,1.52202778233,0.583993835485,-0.660072539797,-2.15247420094,-3.82257551266,-5.59095304469,-7.37418084743,-9.08970784848,-10.6602818365,-12.0174505263,-13.1038108612,-13.8738577652,-14.2934721806,-14.3382552637,-13.9910369159,-13.2389481612,-12.0704456885,-10.4726220344,-8.42904397988,-5.9182568956,-2.91299571614,0.619929099574,4.71914065538,9.42767345606,14.7914690961,20.8573975902,27.6707685506,35.2722653956,43.6942298865,52.9562513959,63.0600774431,73.9839556738,85.6766344999,98.0513782108,110.980478001,124.290847243,137.761361771,151.122629382,164.059833914,176.219186351,187.218318824,196.660673304,204.153571989,209.329233426,211.86755853,211.519110679,208.126419865,201.641615366,192.138481941,179.817360884,165.001863683,148.127080495,129.719766554,110.371777995,90.70870385,71.3561163952,52.9060779787,35.886475525,20.7354196994,7.78239569769,-2.76283469563,-10.8133124249,-16.4003608757,-19.6624504977,-20.8288288843,-20.1995057642,-18.1232159043,-14.9748754004,-11.1338446509,-6.96406189315,-2.79685454707,1.08300063407,4.44760031626,7.13242171872,9.03896280751,10.1336026962,10.4429104066,10.0457787115,9.06291365903,7.64436064803,5.95588056354,4.16508753182,2.42830588286,0.879082500352,-0.380808928572,-1.28721640363,-1.81591074462,-1.98124892433,-1.83144204634,-1.44098814567,-0.901093608086,-0.309084162797,0.242123096199,0.673457009506,0.927155282268,0.971600276066,0.803163909703,0.445013729557,-0.0568579263646,-0.639847160017,-1.23245125642,-1.76261353785,-2.16580236922,-2.39198927339,-2.41083686575,-2.21461689511,-1.81862760629,-1.25914123406,-0.589160661414,0.127524107717,0.823332633999,1.43420812645,1.90649736124,2.20270052619,2.30551507903,2.21977029828,1.97205884036,1.60810005037,1.18809718754,0.780556354505,0.455197601458,0.275688618446,0.292953585093,0.539747628184,1.02704566024,1.74258959275,2.65169637665,3.70018318646,4.8190478847,5.93038007072,6.95388827656,7.81341762296,8.44289211346,8.79122864834,8.82591147305,8.53506162865,7.92796729243,7.03414827985,5.90111088438,4.5910120021,3.1764984892,1.73602026108,0.348931907127,-0.909305384345,-1.97153341063,-2.78267219176,-3.30267049626,-3.50850205742,-3.39513624943,-2.97546333695,-2.27919862188,-1.35083053647,-0.246719822076,0.968496633042,2.22599392825,3.45708790231,4.59751494635,5.5913536819,6.39428589278,6.97593173578,7.32106351359,7.42959881695,7.31538862801,7.00393633887,6.52929464885,5.93047381081,5.24774367998,4.51921482411,3.77803826663,3.05047492511,2.35496846494,1.70222900985,1.09622049449,0.535856887288,0.0171591763995,-0.464395222551,-0.911593058426,-1.32351546891,-1.69408568782,-2.01130475507,-2.25730084455,-2.40925961257,-2.44122612897,-2.32667324257,-2.04162441519,-1.56801667859,-0.89691136776,-0.0311257706983,1.01311895974,2.20585520113,3.50451502835,4.85657059887,6.20347875181,7.48555414986,8.64724798172,9.64222588489,10.437637044,11.0170517164,11.3817073373,11.5499204551,11.5547596812,11.440296694,11.256924646,11.0563318013,10.8867313054,10.7888777978,10.793262876,10.918698431,11.1722988888,11.5506898621,12.0421269513,12.6291223175,13.2911566622,14.0070985933,14.7570503584,15.5234688995,16.2915500003,17.0489870838,17.7853060878,18.4910231175,19.1568706691,19.7732972009,20.3303747827,20.8181639987,21.2274982944,21.5510744058,21.7846810917,21.9283702103,21.9873728321,21.9725860174,21.9004992535,21.7924893926,21.6734855229,21.5700861543,21.5082934595,21.5111022042,21.5962304393,21.7742914483,22.0476733363,22.4103140359,22.8484449428,23.3422433734,23.8682047815,24.4019426282,24.921064969,25.4077718609,25.8508660653,26.2469607866,26.6007844163,26.9246019007,27.2368750924,27.5603556298,27.9198374817,28.3397954754,28.8421110728,29.4440502933,30.1566217697,30.9834107461,31.919956995,32.9537176553,34.0646267701,35.2262312831,36.4073505674,37.5741764725,38.6927054534,39.7313728013,40.6637380335,41.471046893,42.1444693235,42.6867898643,43.1133177083,43.4518004772,43.7411782021,44.0291050928,44.3682910065,44.8118585826,45.4080562835,46.1947900473,47.194516556,48.4100647256,49.8219126495,51.3873469077,53.0417783203,54.7022955699,56.2733214878,57.6540149684,58.7468555924,59.4666799733,59.7493289618,59.5590298182,58.8936885835,57.7874092579,56.3097833206,54.561790509,52.6684937939,50.7690628846,49.0049799637,47.5075261956,46.3857806624,45.7163597019,45.5359770822,45.8376277681,46.5708233092,47.6458818411,48.9418526424,50.3172838371,51.6227627478,52.7139987032,53.4641895665,53.7745130977,53.5817974222,52.8627268383,51.634298308,49.9506236224,47.8965335803,45.578746289,43.1155801491,40.6263000959,38.2211713785,35.9931606487,34.0119871461,32.3209193269,30.9363759842,29.850070369,29.033171801,28.4417828255,28.0229585293,27.7205303782,27.4801271537,27.2529844376,26.9983660946,26.6846463525,26.2892821145,25.7980152599,25.2036735975,24.5048945394,23.7049998346,22.8111327739,21.8336602749,20.7857626475,19.6830941338,18.5433977059,17.385990655,16.2310910221,15.0990143804,14.0093215257,12.9800284271,12.0269929792,11.1635668756,10.4005495101,9.7464141612,9.20770949192,8.78948849039,8.49559750262,8.32867868151,8.28979912219,8.37770837734,8.58782456051,8.91113599012,9.33325992098,9.83390829127,10.3869683927,10.9613208311,11.5224042633,12.0344173206,12.4629436373,12.7777122016,12.9551719983,12.9805701112,12.849273149,12.5671552715,12.149981267,11.621827878,11.0126988244,10.3555872642,9.68331273609,9.02549764199,8.40604270382,7.84140717978,7.33989982759,6.90205045684,6.52197741708,6.18951769236,5.89276943564,5.6206338688,5.36494737658,5.12186594658,4.89229106178,4.68128713857,4.49660879633,4.34660467792,4.23787027011,4.17306902063,4.14932130076,4.15747620839,4.18244347825,4.20459246285,4.20204916097,4.15356935432,4.04156152301,3.85479503919,3.59036433369,3.25458400087,2.86264805384,2.4370747082,2.00514615297,1.5957091231,1.23579900004,0.94756991136,0.745953077654,0.63733907598,0.619413417602,0.68210123391,0.809425518918,0.981974766767,1.17961885822,1.38410528055,1.58120335435,1.76213246871,1.92410328445,2.06991195099,2.2066488817,2.34370362079,2.49034946962,2.65325843577,2.83431540822,3.02906533584,3.22604395291,3.40712564738,3.54889085117,3.6248890459,3.60856674855,3.47655120757,3.21193387714,2.8071848076,2.26635092741,1.60624755001,0.856440394409,0.0579284716709,-0.739433710852,-1.48060598589,-2.1098377855,-2.57556982658,-2.83532637099
2,-75.2478342508,-75.8067171743,-76.3851402098,-76.9667702699,-77.5356608774,-78.0772509094,-78.5791746012,-79.0318043886,-79.4284854111,-79.7654650468,-80.041565332,-80.25768299,-80.4162246445,-80.5205894923,-80.574797217,-80.5833275217,-80.5511945913,-80.4842323678,-80.3895227099,-80.2758654688,-80.1541724668,-80.0376692591,-79.9418097312,-79.883846435,-79.8820483703,-79.9546097317,-80.1183395878,-80.3872567094,-80.771231809,-81.2748202789,-81.8964136655,-82.6278106652,-83.4542719856,-84.3550813029,-85.3045897354,-86.2736769151,-87.2315216505,-88.1475437347,-88.9933599396,-89.7445947043,-90.3824003058,-90.8945704198,-91.2761706751,-91.5296545152,-91.6644767285,-91.6962553876,-91.6455621227,-91.5364394257,-91.3947531822,-91.2464913868,-91.116118516,-91.0250905314,-90.9906271585,-91.0248235629,-91.1341605892,-91.3194411226,-91.5761425288,-91.8951365945,-92.2636952762,-92.6666788361,-93.0877963292,-93.5108371305,-93.9207926071,-94.3048125046,-94.6529636225,-94.9587733304,-95.2195458695,-95.4364378576,-95.6142762998,-95.7611037041,-95.8874455919,-96.0053185177,-96.1270309552,-96.2638700576,-96.4248054744,-96.6153664243,-96.8368505917,-97.0859975843,-97.3552060763,-97.633299597,-97.9067641048,-98.1613063839,-98.3835298642,-98.5625031535,-98.6910098747,-98.7663135959,-98.790340637,-98.7692646874,-98.7125576448,-98.6316393224,-98.5383062018,-98.4431417483,-98.3541072631,-98.2754850004,-98.2072985225,-98.1452747291,-98.081344582,-98.0046128801,-97.9026693838,-97.7630716556,-97.5748104148,-97.3295746504,-97.0226658489,-96.6534634852,-96.225408217,-95.7455335248,-95.2236297733,-94.6711589426,-94.1000506078,-93.5215024071,-92.9448875644,-92.3768460488,-91.8206117028,-91.2756090134,-90.7373400469,-90.1975711369,-89.6448156998,-89.0650908694,-88.4429012837,-87.762376509,-87.008464754,-86.1680708602,-85.2310259376,-84.1907914317,-83.0448302146,-81.7946167305,-80.4453008607,-79.0050794061,-77.4843594242,-75.8948155996,-74.2484483427,-72.5567413989,-70.8299998449,-69.0769244567,-67.3044495788,-65.5178414364,-63.7210245815,-61.9170778902,-60.1088203268,-58.2993931572,-56.4927427474,-54.6939195705,-52.9091350833,-51.1455549472,-49.410847118,-47.7125382896,-46.0572559698,-44.4499438064,-42.8931357198,-41.3863630536,-39.9257521528,-38.5038510706,-37.1097058402,-35.7291896983,-34.3455725693,-32.940303034,-31.4939617805,-29.987335176,-28.4025501864,-26.7242067632,-24.9404407111,-23.0438495912,-21.0322174253,-18.9089816152,-16.6833979123,-14.3703765051,-11.9899839268,-9.56663027916,-7.12798702175,-4.70370438974,-2.32401630432,-0.0183315520031,2.186089164,4.26528103595,6.19947944698,7.97374095816,9.5782724884,11.0084881998,12.264833315,13.3524230689,14.2805437456,15.0620539041,15.7127110186,16.250435463,16.6945133584,17.0647352261,17.3804709733,17.6596946056,17.9179929739,18.167617708,18.4166619282,18.6684567173,18.9212817324,19.1684676183,19.3989356574,19.5981751531,19.7496062245,19.8362220186,19.842358393,19.7554094223,19.5673000257,19.2755453962,18.8837691668,18.4016126193,17.8440368145,17.2300881956,16.5812567679,15.9195976035,15.2658072789,14.6374459578,14.0474748218,13.5032411211,13.0059941053,12.550959851,12.1279471032,11.7224053446,11.3168157084,10.8922693535,10.4300793381,9.91328169917,9.32790769286,8.66394727504,7.91596673252,7.08338311125,6.17042847996,5.18585467926,4.14243359267,3.0563013689,1.94618196223,0.832511974933,-0.263518711749,-1.3209935369,-2.32033335612,-3.24434906936,-4.07921444273,-4.81527791556,-5.44763090322,-5.97636297598,-6.40646100732,-6.74734677668,-7.01208994755,-7.21637363824,-7.37732053958,-7.51230249421,-7.6378519449,-7.76876957539,-7.91748280288,-8.09366233458,-8.30405905592,-8.5524915151,-8.83990304429,-9.16442008676,-9.52137663019,-9.9033152924,-10.3000214011,-10.6986793644,-11.084249958,-11.440146954,-11.7492429528,-11.995166423,-12.1637800258,-12.2446712388,-12.232453952,-12.1276818562,-11.937212034,-11.6739243592,-11.3557875401,-11.0043510302,-10.6428191142,-10.293918389,-9.97779667089,-9.7101887411,-9.50105429377,-9.35384016974,-9.2654480941,-9.22690761774,-9.22467037648,-9.24236643442,-9.26280728198,-9.26999230001,-9.25088148224,-9.19673655004,-9.10389861284,-8.97395130144,-8.81329964071,-8.6322640582,-8.44383708713,-8.2622735875,-8.10168421114,-7.97478046923,-7.89188436295,-7.86027267703,-7.88388116873,-7.96335109225,-8.09636318551,-8.27817578695,-8.50226737023,-8.76098170062,-9.04608618938,-9.3491785759,-9.66190978649,-9.9760271419,-10.2832775397,-10.5752402445,-10.8431785424,-11.0780041117,-11.2704346348,-11.4113940888,-11.4926598408,-11.5077076177,-11.4526533506,-11.3271497234,-11.1350744797,-10.8848539367,-10.5893008295,-10.2649071538,-9.93061161017,-9.60614536406,-9.31013522422,-9.05819672393,-8.86127062164,-8.72443939415,-8.64640582674,-8.61973065911,-8.63182267089,-8.66656820182,-8.70639431704,-8.73449510252,-8.73692394533,-8.70427041328,-8.63269692138,-8.52420057582,-8.38607692644,-8.22967809102,-8.06865937508,-7.91697946033,-7.78694803877,-7.68759742386,-7.62359528846,-7.59482557961,-7.59666000263,-7.62084096908,-7.65681452887,-7.69330013847,-7.71986861497,-7.72831889414,-7.71369076378,-7.67481337294,-7.61435617459,-7.53841018221,-7.45567671258,-7.37637564787,-7.31100576633,-7.26909666258,-7.25808549884,-7.28243217898,-7.34305401076,-7.43711778485,-7.55817804255,-7.69660166308,-7.84017816589,-7.97478916017,-8.08500415296,-8.15448547944,-8.16612114432,-8.10185649576,-7.94225699059,-7.66589593675,-7.24871283258,-6.66351956286,-5.87983480515,-4.86419686956,-3.58104283919,-1.99415505056,-0.0685787954231,2.22717402829,4.91888308863,8.02460890439,11.5531568678,15.5031903754,19.863067121,24.611359835,29.7179183188,35.1452522804,40.8499773441,46.784074776,52.8957655142,59.1298806644,65.427709164,71.7264031586,77.9581083679,84.0490486508,89.9188231188,95.4801668333,100.63938359,105.297587937,109.352804193,112.702875965,115.24905307,116.900053616,117.576352619,117.214426244,115.770680002,113.224806263,109.582346702,104.876275519,99.1674669517,92.5439648519,85.119032394,77.0280254417,68.4242012423,59.4736405635,50.3495206476,41.22602313,32.2721913245,23.6460624226,15.4893906088,7.92324595541,1.04472142372,-5.07509149451,-10.3917845294,-14.8869926162,-18.5665477159,-21.4576271199,-23.6051620844,-25.0678097577,-25.9137965334,-26.2169157913,-26.0529136897,-25.4964320577,-24.6186069881,-23.4853541639,-22.1563140583,-20.6843860123,-19.1157508355,-17.4902653427,-15.8421059177,-14.2005387892,-12.5907009354,-11.0342883594,-9.55006990104,-8.15417587583,-6.86015008548,-5.67879641537,-4.61789060233,-3.68185693229,-2.87152309723,-2.18406098803,-1.61319655128,-1.14973103785,-0.782365071586,-0.498763889334,-0.286755208813,-0.135518072381,-0.036607644356,0.0153292654923,0.0222603038849,-0.0170439943504,-0.106341149267,-0.250832321578,-0.45578376447,-0.725016969254,-1.0594528078,-1.45589540511,-1.90621922689,-2.39708005401,-2.91021201698,-3.42330577944,-3.91139563635,-4.34862412695,-4.71020910535,-4.97441551404,-5.12433522653,-5.14930295794,-5.04582060939,-4.81791949345,-4.47695048934,-4.04084682446,-3.53294540569,-2.980476955,-2.41284391238,-1.85980307727,-1.34966324891,-0.907600989372,-0.554191082771,-0.30424023916,-0.165999652054,-0.140811457291,-0.223215409771,-0.401507159385,-0.658702370714,-0.973826610756,-1.32342417948,-1.68316329204,-2.02941184761,-2.34066732152,-2.59874444391,-2.78965228326,-2.90412428662,-2.9377968312,-2.89106057948,-2.76863183199,-2.57890633431,-2.33316466103,-2.0446964592,-1.72790189122,-1.39741546399,-1.06728405103,-0.75022118714,-0.45695591611,-0.195696321548,0.0282673475224,0.212791416427,0.35891228144,0.470666298042,0.554693496446,0.619642836757,0.675417592395,0.732316932829,0.800140631825,0.887326305293,1.00018304408,1.14227422322,1.31398917096,1.5123312823,1.7309404888,1.96036042442,2.18855344709,2.40165733876,2.5849633542,2.72407459104,2.80617683421,2.821324617,2.76361983957,2.63214714255,2.43153663199,2.17205397193,1.86916827241,1.54261223805,1.21501561283,0.910249529164,0.651654785951,0.460334700037,0.353673165139,0.344197754189,0.438856763017,0.638728553002,0.939139080526,1.33013318345,1.79722809599,2.32237268805,2.8850405555,3.46339598571,4.03548520011,4.58041706922,5.07950376528,5.51732974688,5.88270679106,6.1694567926,6.37694929523,6.51031518767,6.58026838893,6.60249661042,6.59662822909,6.58483767253,6.59020574975,6.63499257611,6.73899999576,6.91819317106,7.18371821789,7.54140033106,7.99174426265,8.53039721964,9.14898302738,9.83618219519,10.5789174648,11.3635070681,12.1766648914,13.0062543431,13.8417377598,14.6743028896,15.4966894268,16.3027781335,17.087038572,17.8439547875,18.5675580033,19.2511889962,19.8875886475,20.4693727396,20.9898882003,21.4443782251,21.8313131004,22.1536858817,22.4200417451,22.6450175694,22.8492173947,23.0583341582,23.3015349806,23.6092377859,24.0105017132,24.5303162276,25.1870941366,25.9906503814,26.9408882095,28.0273295557,29.2295316145,30.5183400145,31.8578510565,33.2078975956,34.5268379221,35.7744140555,36.9144532519,37.917211337,38.761194912,39.4343472395,39.9345357729,40.2693349491,40.4551531975,40.5158040515,40.4806620663,40.3825692628,40.2556636967,40.1332889001,40.0461152571,40.0205677971,40.077615903,40.2319449335,40.4915021999,40.8573924231,41.3240903867,41.8799383364,42.507898714,43.1865350877,43.8911927704,44.5953442574,45.2720532562,45.8954957603,46.44245955,46.8937282777,47.2352475012,47.4589721587,47.5633108063,47.5531113242,47.4391724261,47.2373097701,46.9670488016,46.6500533023,46.3084247191,45.963019679,45.6319301471,45.3292526888,45.0642422586,44.8409053254,44.6580416462,44.5096992191,44.3859688975,44.2740190651,44.1592595742,44.0265274607,43.8612016919,43.6501760388,43.3826438883,43.0506727018,42.6495657234,42.1780221976,41.6381142351,41.0350998023,40.3770894293,39.6745814754,38.9398790354,38.1864021822,37.4279131077,36.677678993,35.9476073838,35.2473997584,34.5837784513,33.9598475801,33.374648278,32.8229618388,32.2954020363,31.7788211268,31.25703392,30.7118414872,30.1243110154,29.4762416644,28.7517193958,27.9386395091,27.0300587264,26.0252348465,24.9302260648,23.7579558279,22.5277000893,21.2640152444,19.9951869528,18.7513317471,17.5623163532,16.4556707172,15.4546625108,14.5766797373,13.8320403457,13.2233170729,12.7452327119,12.3851447747,12.1240983511,11.9383824237,11.8014802568,11.6862627646,11.5672403675,11.4226697642,11.2363127083,10.9986675934,10.7075417205,10.3678992766,9.99100043389,9.59293026249,9.1926898048,8.81007349443,8.46357835849,8.16857785289,7.93594924716,7.77127555016,7.6746618966,7.6411247282,7.66144233057,7.72330732878,7.81260174331,7.91462452291,8.01513634577,8.10113854723,8.16136100828,8.18648629249,8.16917541683,8.10397972216,7.98722292425,7.81692041415,7.59277416536,7.31624724312,6.9906884522,6.62145165864,6.2159414928,5.78352104722,5.33523793271,4.88335875802,4.44074142761,4.02011040512,3.63332338984,3.2907225139,3.00064760184,2.76915692019,2.59996005269,2.49452772998,2.4523135406,2.4710088064,2.54675731422,2.67427993638,2.84689551593,3.0564655544,3.29332620445,3.54629236334,3.80281892712,4.04938207897,4.27210298959,4.45758631115,4.59389734596,4.67156482963,4.68447773153,4.6305472384,4.51202842002,4.33543630684,4.11104237108,3.85199241383,3.57313780274,3.28971149287,3.01600228515,2.76418142575,2.54341377757,2.35934370766,2.21398970008,2.10602103526,2.03133583922,1.98382274357,1.95617526275,1.94064048099,1.92961768526,1.91606946109,1.89375631735,1.85734521988,1.80246450324,1.72577923786,1.62514378549,1.49985673544,1.35100396389,1.18183528011,0.99808664268,0.808140632187,0.622918348203,0.455418361115,0.319860968919,0.230453514677,0.199857280894
2,-49.8415149546,-50.2606796357,-50.5623233231,-50.770817618,-50.9139346198,-51.0206643287,-51.1190528787,-51.2342369667,-51.386826801,-51.5917554273,-51.8576687934,-52.186881855,-52.575875885,-53.0162658719,-53.4961290006,-54.0015585827,-54.518293118,-55.0332666906,-55.5359340394,-56.0192419401,-56.4801492293,-56.9196411794,-57.3422378662,-57.7550555726,-58.1665376899,-58.5850184525,-59.0173110575,-59.4675150451,-59.9362132676,-60.4201775913,-60.9126306013,-61.4040282349,-61.8832486661,-62.3390098325,-62.7613034588,-63.1426341058,-63.4788876583,-63.7697176951,-64.0184178506,-64.2313287198,-64.4168951629,-64.5845337377,-64.7434854588,-64.9018170407,-65.0657000119,-65.2390496677,-65.4235524744,-65.6190573041,-65.8242576784,-66.037553655,-66.2579575568,-66.4859008855,-66.7238119244,-66.9763636641,-67.250336183,-67.5540907985,-67.8967079081,-68.2868885094,-68.7317534968,-69.2356896737,-69.7993850656,-70.4191705288,-71.0867452803,-71.7893185817,-72.5101564848,-73.2294874536,-73.9256965762,-74.5767242801,-75.1615791278,-75.6618722686,-76.0632811975,-76.3568515794,-76.540047764,-76.617465746,-76.6011281242,-76.5102918416,-76.3707198551,-76.2134005093,-76.0727437154,-75.9843377235,-75.9824076146,-76.0971675561,-76.3522935421,-76.7627537089,-77.3332156366,-78.0572060262,-78.9171339402,-79.8852127169,-80.9252358812,-81.995085749,-83.0497857118,-84.0448536575,-84.9396796959,-85.7006406126,-86.303678835,-86.7361151577,-86.9975291557,-87.0996236523,-87.0650824562,-86.9255254291,-86.7187526635,-86.4855403005,-86.2662942469,-86.0978766106,-86.0108902036,-86.027643703,-86.1609351938,-86.4136985956,-86.7794685394,-87.2435445129,-87.7846815782,-88.3771066993,-88.992657243,-89.6028583812,-90.1807925648,-90.7026587788,-91.1489635959,-91.50532334,-91.7628831455,-91.9183742691,-91.973838946,-91.9360573846,-91.8157185945,-91.6263875977,-91.383335093,-91.102308527,-90.7983317508,-90.4846204171,-90.17168979,-89.8667108715,-89.5731428287,-89.290640075,-89.0152069739,-88.7395565442,-88.4536236278,-88.1451867217,-87.8005625404,-87.4053484806,-86.9451957765,-86.4065972208,-85.7776674512,-85.0488833692,-84.2137417919,-83.2692861043,-82.2164570422,-81.0602352924,-79.8095627473,-78.477050764,-77.0785034076,-75.6322980089,-74.1586723509,-72.6789668453,-71.2148623819,-69.7876426384,-68.4174965742,-67.1228654634,-65.9198315354,-64.8215435804,-63.8376790612,-62.9739513147,-62.2316822158,-61.6074724696,-61.093010776,-60.6750674595,-60.3357166029,-60.0528226275,-59.8008122873,-59.5517314211,-59.2765587665,-58.9467192768,-58.5357105612,-58.0207327001,-57.3841977383,-56.6149934414,-55.7093879487,-54.6714876486,-53.5131975708,-52.2536768802,-50.9183250031,-49.5373700959,-48.1441569147,-46.7732450214,-45.4584328753,-44.2308220245,-43.1170310401,-42.1376621513,-41.3061142478,-40.6278224979,-40.0999856062,-39.7118157706,-39.4453141325,-39.2765381221,-39.1772898974,-39.1171205799,-39.0655160932,-38.994109145,-38.8787497465,-38.7012650114,-38.4507495396,-38.1242523976,-37.7267668975,-37.2704844825,-36.773340956,-36.2569565955,-35.7441441276,-35.2562209894,-34.8104042781,-34.4175785066,-34.0807020759,-33.7940591181,-33.5434760664,-33.307517865,-33.0595694072,-32.7706057749,-32.4123714653,-31.9606335408,-31.3981533195,-30.7170392642,-29.9201998337,-29.021704922,-28.0459795919,-27.0258818712,-25.9998428182,-25.0083568511,-24.0901898999,-23.2787117326,-22.5987507692,-22.0643144589,-21.6774217572,-21.4281680674,-21.2960029366,-21.2520640948,-21.262294476,-21.2909853221,-21.3043479841,-21.2737241039,-21.1780969705,-21.0056585212,-20.7543042468,-20.431056604,-20.0505401271,-19.6327336369,-19.2002957337,-18.7757927651,-18.3791521685,-18.0256212473,-17.7244381152,-17.4783263722,-17.2838190966,-17.1323140998,-17.011675257,-16.9081367326,-16.8082462573,-16.7006018397,-16.5771878798,-16.434190296,-16.2722514799,-16.0962002616,-15.9143483273,-15.7374767566,-15.5776445774,-15.4469406084,-15.3562785664,-15.3143121814,-15.3265287579,-15.3945693641,-15.5158202261,-15.6833181752,-15.8860070524,-16.1093666224,-16.3364080056,-16.5489908684,-16.7293727395,-16.8618581899,-16.9343843667,-16.9398668639,-16.8771401118,-16.7513596503,-16.5737867313,-16.3609426133,-16.1331922489,-15.9128852226,-15.7222366115,-15.5811645737,-15.5053103736,-15.5044490854,-15.581457966,-15.7319502882,-15.9446131288,-16.2022164136,-16.4831947085,-16.7636484757,-17.0195717942,-17.2290915473,-17.3745004183,-17.4438833024,-17.4321732711,-17.3415265886,-17.1809719835,-16.9653611045,-16.7137177396,-16.447146411,-16.1865110676,-15.9501273633,-15.7517230055,-15.5989052655,-15.4923296,-15.4256890658,-15.3865474325,-15.3579319142,-15.3205001488,-15.2550168091,-15.1448317544,-14.9780520104,-14.7491446097,-14.459788952,-14.1189019575,-13.7418694551,-13.3491156195,-12.9642146953,-12.6117869131,-12.3154209604,-12.0958325359,-11.9694116197,-11.9472424847,-12.0346125,-12.2309682689,-12.5302371294,-12.9214120906,-13.3892996163,-13.9153493981,-14.4785166258,-15.0561409907,-15.6248534307,-16.1615343595,-16.6443421992,-17.0538088921,-17.3739645914,-17.593415786,-17.7062705397,-17.7127907634,-17.619659682,-17.4397824298,-17.1915836024,-16.8978194073,-16.5839754728,-16.2763676569,-16.0000975982,-15.7770341802,-15.6239947411,-15.5512854632,-15.5617305541,-15.6502780448,-15.8042206954,-16.0040181164,-16.2246549289,-16.4374233012,-16.6119797446,-16.7184984798,-16.7297296473,-16.6227725279,-16.3803932953,-15.9917536842,-15.4524694642,-14.7639820664,-13.9322976422,-12.9662182017,-11.8752509945,-10.6674264411,-9.34727431959,-7.91419798237,-6.3614463703,-4.67581718484,-2.83813971421,-0.824494087385,1.39196142461,3.83874943119,6.54165093961,9.52233943218,12.7962854789,16.3710982563,20.2454081579,24.4083272444,28.8394600672,33.5093835555,38.3804766515,43.4079615317,48.5410195265,53.7238648255,58.8966941822,63.9964756038,68.9575862946,73.7123517912,78.1915669933,82.3250912846,86.0426037829,89.2745839701,91.9535522815,94.0155698375,95.4019611517,96.0611926527,95.9508168982,95.0393801651,93.3081905979,90.7528539327,87.3845003405,83.2306441104,78.3356326472,72.7606489893,66.5832319351,59.8962725449,52.8064411233,45.4320026416,37.8999985549,30.342813721,22.8942077133,15.6849626117,8.83837113675,2.46584404107,-3.33706008772,-8.49389429783,-12.9496375616,-16.6719139152,-19.6510675056,-21.899146086,-23.447932983,-24.3462307396,-24.656633638,-24.4520317102,-23.8120705461,-22.8197564799,-21.5583531955,-20.1086697598,-18.5467959836,-16.942301586,-15.3568829202,-13.8434170583,-12.4453697379,-11.1965015966,-10.1208243461,-9.23277137522,-8.53756201144,-8.0317527411,-7.70398009729,-7.53590644588,-7.5033791378,-7.5778038461,-7.72771462268,-7.92049882677,-8.12420895796,-8.30937051771,-8.45067939585,-8.52847626259,-8.52988968095,-8.44955369921,-8.2898286022,-8.06048409889,-7.77784097184,-7.46340815301,-7.14209492736,-6.84011958396,-6.58277255101,-6.39221889967,-6.28553620938,-6.27317385813,-6.35798649367,-6.53494016998,-6.79152141266,-7.10880694822,-7.46308485084,-7.82786467673,-8.17608041165,-8.48227836419,-8.72459218598,-8.88633634784,-8.957093478,-8.93322491491,-8.81779202583,-8.61993244006,-8.35378470508,-8.03709209609,-7.68963771217,-7.33166660151,-6.98243671581,-6.65901178783,-6.37537087566,-6.14186769212,-5.96503388883,-5.84768827045,-5.78929019786,-5.78646015093,-5.83358308586,-5.92341118563,-6.04759310691,-6.19707758735,-6.36236875535,-6.53364444175,-6.70078134139,-6.85335586285,-6.98070147743,-7.07209845111,-7.11714901012,-7.10635321823,-7.03185489256,-6.88828178723,-6.67356923181,-6.38963879251,-6.0428073238,-5.64382682923,-5.20749769406,-4.75185001769,-4.29694171009,-3.86337017702,-3.47063131043,-3.13548197357,-2.87046886957,-2.68277733865,-2.57352872333,-2.53761579448,-2.56411485814,-2.63725460203,-2.73786107743,-2.84514222408,-2.93863136732,-3.00008419751,-3.01512342231,-2.97445200984,-2.87450763111,-2.71750050518,-2.51085345839,-2.26613431623,-1.99762582763,-1.72070994023,-1.45024917569,-1.19913086746,-0.977106425281,-0.790015027647,-0.639435636171,-0.52276747309,-0.433700029475,-0.363001306693,-0.299528869156,-0.231353627349,-0.146882153769,-0.0358706052135,0.109758024651,0.295353385504,0.52326042738,0.792818499465,1.10060313661,1.44085952203,1.80606968563,2.18759696479,2.57635797455,2.9634811915,3.34092002798,3.70199589742,4.0418529658,4.3578109639,4.64960545477,4.91950624908,5.1723045258,5.41515843273,5.65728681362,5.90950303086,6.18358769036,6.49151211333,6.84454391592,7.25229001779,7.7217562759,8.25652065694,8.85612259882,9.51576113961,10.2263677625,10.9750795384,11.7460902696,12.5218102216,13.2842265283,14.0163317545,14.703479414,15.3345321076,15.9026888826,16.4059115424,16.8469123853,17.2327143193,17.5738429902,17.8832529393,18.1751192097,18.4636367789,18.7619599644,19.0813839358,19.4308264884,19.816619142,20.2425718742,20.7102431691,21.2193311417,21.7681031692,22.3537980502,22.9729607708,23.6216983871,24.2958695781,24.9912356941,25.7036064867,26.4290101366,27.1639060373,27.9054412732,28.651730015,29.402113177,30.1573391443,30.9196004558,31.692369236,32.4799960279,33.2870694998,34.1175730453,34.9739124115,35.8559202614,36.7599641699,37.678290712,38.5987284712,39.5048468657,40.3766265506,41.191642907,41.9267008322,42.5597934612,43.0721990202,43.4504895404,43.6882124992,43.7870276041,43.7571357144,43.6169182566,43.3918009218,43.1124497397,42.8124859477,42.5259566405,42.2848145196,42.1166421269,42.0428097968,42.0771924386,42.2255001168,42.4852125119,42.8460564483,43.29093335,43.797189486,44.3381218686,44.8846204767,45.4068574753,45.8759428453,46.2654724404,46.5528999639,46.7206705528,46.7570621504,46.6566924953,46.4206647512,46.0563436953,45.576776472,44.9997952627,44.3468606639,43.6417207979,42.9089700361,42.1725923482,41.4545691539,40.7736226548,40.1441553378,39.575436085,39.0710733885,38.6288060417,38.2406306399,37.8932727417,37.5689943823,37.2467145883,36.9034013308,36.5156727727,36.0615230155,35.522064313,34.8831570764,34.1367857642,33.2820381549,32.325561601,31.2814041931,30.1701998389,29.0177197385,27.8528818023,26.7053757631,25.6031162487,24.5697710288,23.6226208585,22.7709871389,22.0154136768,21.3477128823,20.7518925174,20.2058777132,19.6838479234,19.1589338358,18.6059768218,18.0040499627,17.3384751965,16.6021397389,15.7960061629,14.9288108174,14.0160398541,13.0783474515,12.1396272182,11.2249613449,10.3586551342,9.56252442633,8.85455018621,8.24795818169,7.750730224,7.36551193926,7.08985304147,6.9167004123,6.83506151166,6.83076393689,6.88725309881,6.98638997775,7.10923088807,7.23678776527,7.35077763699,7.43437089541,7.47293817672,7.45477604995,7.3717669069,7.21990624651,6.99961954751,6.71579675116,6.37749521932,5.9972973043,5.59034977335,5.173152904,4.76220158276,4.37260454336,4.01681755587,3.70362033632,3.43744563948,3.2181346351,3.041148712,2.89821873506,2.77836388985,2.66916978374,2.55818555304,2.43428686398,2.28885746557,2.11666483891,1.91634191715,1.69043235509,1.44500650255,1.18890379249,0.932699263641,0.687522290514,0.463870019861,0.27055386111,0.113894686609,-0.00275548001698,-0.0791344230764,-0.117850860073,-0.123885517189,-0.103901614261,-0.0654670193833,-0.0162851842865,0.0364884151785,0.0867970982503,0.130084414326,0.163553698148,0.186305955781,0.199376235454,0.205678295056,0.209852383487,0.217998587201,0.237274841645,0.275347206451,0.339698841235,0.436829198742,0.571401997299,0.745425767526,0.957569969725,1.20272766564,1.47192739582,1.75266907805,2.02971160715,2.28627774978,2.50557358689,2.67245749436,2.77505112061,2.8060733277,2.76370306389,2.65183637275,2.47968647435,2.26076903042,2.0114006885,1.74890371281,1.48974434849,1.24783504486,1.03320325198,0.851177928707,0.7021768354,0.582101890552,0.483275385331,0.395785060185,0.309057942229,0.213456680528
2,-58.0099870319,-58.5343842957,-59.0450923399,-59.548917844,-60.051326452,-60.5561257378,-61.0653062754,-61.5790238176,-62.0956897075,-62.6121303684,-63.1237807365,-63.6248894216,-64.1087312812,-64.5678402469,-64.9942860208,-65.3800193225,-65.7173017062,-65.9992203969,-66.2202701947,-66.3769667672,-66.4684405322,-66.4969486825,-66.4682360273,-66.3916758378,-66.2801327926,-66.1495130122,-66.0179996625,-65.9050121578,-65.8299657165,-65.8109384311,-65.863369101,-65.9989081509,-66.2245271945,-66.5419643796,-66.9475481354,-67.4324067995,-67.9830400521,-68.5822024515,-69.2100300083,-69.8453267046,-70.4669183161,-71.0549762631,-71.592216259,-72.064887075,-72.4634843121,-72.7831512058,-73.0237598174,-73.1896966972,-73.2894020249,-73.3347262057,-73.3401712758,-73.3220776437,-73.2978035489,-73.284930029,-73.3005119879,-73.3603877453,-73.4785547796,-73.6666170468,-73.9333082465,-74.2840952791,-74.7208672624,-75.2417189639,-75.8408444109,-76.508566164,-77.2315351252,-77.9931397562,-78.7741572062,-79.5536593607,-80.3101550816,-81.0229105651,-81.6733502122,-82.2464092828,-82.7316946868,-83.1243166278,-83.4252824948,-83.6413919557,-83.7846313191,-83.8711261483,-83.9197637168,-83.950632888,-83.983443492,-84.0360793702,-84.1234116703,-84.2564570634,-84.4419164117,-84.6820808609,-84.9750517804,-85.3151942754,-85.6937344407,-86.0994182473,-86.5191716686,-86.9387313612,-87.3432453983,-87.7178667281,-88.0483722405,-88.3218346279,-88.5273535968,-88.6568222722,-88.7056713686,-88.673506328,-88.564538364,-88.3877133986,-88.1564638509,-87.8880446769,-87.6024623182,-87.32105709,-87.0648490098,-86.8527971616,-86.7001472806,-86.6170465314,-86.6075855542,-86.6693857107,-86.7937878643,-86.9666257486,-87.1694925501,-87.3813451497,-87.5802470279,-87.7450360371,-87.8567205548,-87.8994547409,-87.8610131087,-87.7327651095,-87.5092291056,-87.1873495614,-86.765681191,-86.2436725347,-85.6212171694,-84.8985868235,-84.0767850562,-83.158274487,-82.1479487421,-81.054156721,-79.8895537844,-78.6715595102,-77.422245672,-76.1675551839,-74.9358514623,-73.7559030086,-72.6545037152,-71.6540001007,-70.7700302532,-70.0097691786,-69.3709222522,-68.8416204915,-68.4012617483,-68.0222266663,-67.6722936238,-67.3174970294,-66.9251281583,-66.466571284,-65.9196982531,-65.2706050878,-64.5145546005,-63.6560776689,-62.7082711261,-61.6914024597,-60.6309843746,-59.5555134947,-58.4940783925,-57.4740362015,-56.5189381773,-55.6468559045,-54.8692235115,-54.1902686193,-53.6070571275,-53.1101262465,-52.684629407,-52.3118699599,-51.9710631858,-51.6411438747,-51.3024345639,-50.9380098369,-50.5346335936,-50.0832039823,-49.578707026,-49.0197455257,-48.4077648172,-47.7461325236,-47.03923916,-46.2917680466,-45.5082395958,-44.6928749406,-43.8497588649,-42.9832246795,-42.0983447552,-41.2013961497,-40.3001815934,-39.4041169825,-38.5240390791,-37.6717322734,-36.8592133942,-36.097843738,-35.3973558165,-34.7648894013,-34.2041293484,-33.7146289115,-33.2913888706,-32.9247460564,-32.6006053341,-32.3010272128,-32.005159551,-31.6904771999,-31.3342688699,-30.915287058,-30.4154555997,-29.8215118194,-29.1264486355,-28.3306193145,-27.4423769263,-26.4781440826,-25.461846591,-24.4236951694,-23.3983579832,-22.4226275153,-21.5327415717,-20.7615636426,-20.1358567396,-19.6738929269,-19.3836256888,-19.2616141553,-19.2928297644,-19.4514023159,-19.7022805194,-20.0037000813,-20.3102778945,-20.5764904463,-20.7602528294,-20.8262950932,-20.7490377186,-20.5146993066,-20.1224268604,-19.5843194349,-18.9243138202,-18.1760082583,-17.3796070436,-16.5782640056,-15.814174776,-15.1248057561,-14.5396437346,-14.0778007006,-13.7467165421,-13.5420781312,-13.4489327308,-13.4438359867,-13.4977593067,-13.5794042273,-13.6585421328,-13.7090179171,-13.7111190677,-13.6531043216,-13.5317929718,-13.3522224591,-13.1264766095,-12.8718621737,-12.608662983,-12.3577270754,-12.1381420589,-11.9652288648,-11.8490372964,-11.7934644026,-11.7960467494,-11.8484089811,-11.9372915431,-12.0460352416,-12.1563709223,-12.2503470718,-12.3122230871,-12.3301584354,-12.2975374829,-12.2137887819,-12.0845902348,-11.9214009968,-11.7403266449,-11.5604001613,-11.4014375875,-11.2816920443,-11.2155721191,-11.2117017292,-11.2715735551,-11.3889871869,-11.5503722936,-11.7359878091,-11.9218755059,-12.0823469016,-12.1927113372,-12.231921124,-12.1848213743,-12.0437451795,-11.8092810224,-11.4901463941,-11.1022145762,-10.6668444814,-10.2087415155,-9.75361986459,-9.3259390476,-8.94695285112,-8.63324582669,-8.39585388746,-8.2399843755,-8.16527874164,-8.16650597289,-8.23454159709,-8.35747638376,-8.52170902858,-8.71290490789,-8.91674401871,-9.11942963876,-9.30797767221,-9.47034702095,-9.59549656551,-9.67346012944,-9.69551663979,-9.65450202867,-9.5452688743,-9.36525760047,-9.11510711962,-8.79920896958,-8.42610046172,-8.00859997474,-7.56361025578,-7.11155061144,-6.67542149553,-6.27954904797,-5.94809614574,-5.70345528365,-5.5646540654,-5.54590531474,-5.65542151788,-5.89458966183,-6.25757120777,-6.73135768134,-7.2962799213,-7.92694191185,-8.59352972712,-9.2634315045,-9.90309280971,-10.480020012,-10.9648301533,-11.3332293681,-11.5677859937,-11.6593540281,-11.6080032339,-11.4233288194,-11.1240488985,-10.7368513016,-10.294518786,-9.83343630478,-9.39065670966,-9.00076212169,-8.69279762876,-8.48756467015,-8.39554043803,-8.41563892787,-8.53495501152,-8.72954317757,-8.96618578951,-9.20500994309,-9.40272520245,-9.51618481899,-9.50592886807,-9.33935676384,-8.99320390731,-8.45506297872,-7.72378862028,-6.80874333342,-5.72796720172,-4.50546871294,-3.16792449045,-1.74113189978,-0.246574983306,1.30155889272,2.8986318967,4.55088161768,6.27572117737,8.10101445577,10.0634173819,12.2059476798,14.5749933338,17.2169936207,20.1750280428,23.4855315277,27.1753232443,31.2590966907,35.7374763014,40.5957062402,45.8030039719,51.3125854489,57.062348027,62.976177458,68.9658229892,74.9332589653,80.7734248207,86.3772125997,91.6345574134,96.4374858449,100.682992151,104.275640825,107.12983226,109.171709454,110.340720775,110.590880267,109.891778768,108.229395393,105.606742056,102.04434777,97.5805591347,92.2716034761,86.1913363634,79.4305801419,72.0959582612,64.3081433197,56.1994652064,47.9108684255,39.5882620364,31.3783667991,23.4242250383,15.8605912256,8.80945781792,2.37598600403,-3.35489823165,-8.32101647602,-12.4843896819,-15.8315363684,-18.3726119603,-20.139474479,-21.1828451102,-21.5687991555,-21.3748661361,-20.6860322744,-19.5909222899,-18.1783924511,-16.5346993595,-14.74132827,-12.8734816123,-10.9991533262,-9.17865678105,-7.4644402688,-5.90101846788,-4.52487185653,-3.36421620137,-2.4386142098,-1.75848017191,-1.32460151269,-1.12785325975,-1.14929961146,-1.36085390185,-1.72660490305,-2.20482243921,-2.75054470847,-3.31854384455,-3.86638549455,-4.35725866488,-4.76226259397,-5.06189807461,-5.24661284975,-5.31637816007,-5.27940485013,-5.15022013375,-4.94740106686,-4.69128607727,-4.4019590096,-4.09772790545,-3.79421756867,-3.50407984585,-3.23721860427,-3.00134555148,-2.80264119107,-2.64629818526,-2.53677028621,-2.47762968868,-2.47103426653,-2.5169051816,-2.61199564087,-2.74907706886,-2.91647032014,-3.09810624092,-3.27421991833,-3.4226809056,-3.52085573834,-3.54780735875,-3.48657336759,-3.32624003577,-3.06354357073,-2.70378007288,-2.26088264916,-1.7566178929,-1.21895338323,-0.67974227193,-0.17195056735,0.273291000244,0.629502068027,0.877233363184,1.00575368467,1.01385772683,0.909707747905,0.709732946238,0.436719045367,0.117312409973,-0.220773902272,-0.551537716899,-0.853145368899,-1.10981128545,-1.31291445831,-1.46125787998,-1.56047564468,-1.6216874927,-1.65958154465,-1.69016410668,-1.72844527803,-1.78632896178,-1.87094704715,-1.98362321724,-2.11957706862,-2.26839151895,-2.41517611896,-2.54227779806,-2.63132982659,-2.66539696584,-2.63097251709,-2.51960890124,-2.32901124684,-2.0634848829,-1.73369421594,-1.35575545922,-0.949744705514,-0.537753689292,-0.141667344413,0.219130951754,0.529900755484,0.782302620878,0.97555874644,1.11684206829,1.22078577784,1.30809577057,1.40335650161,1.5322332973,1.718373836,1.98037931436,2.3292358036,2.76655966816,3.28391866846,3.86335394027,4.47906764222,5.10008195118,5.69354267461,6.22825565771,6.67801832899,7.02434363248,7.25826101112,7.38100381713,7.40353575581,7.34501139132,7.23038961087,7.08750972033,6.94398786396,6.82429342398,6.74732442353,6.72472671246,6.76010605622,6.84917823618,6.98080201198,7.13875320837,7.30403236493,7.45745742806,7.58227793709,7.66655618544,7.70508980547,7.70069416735,7.66471736844,7.61672164681,7.58332942266,7.59629686332,7.68994064727,7.89810294946,8.25089365131,8.77149330597,9.47332823225,10.3579308714,11.4137656314,12.6162286805,13.9289221652,15.3061688427,16.6965875286,18.0474118841,19.3091247973,20.4399162849,21.4094681522,22.2016296308,22.8156707894,23.2659697203,23.5801808577,23.7961156382,23.9577145232,24.1105799924,24.2975636441,24.5548594028,24.908961889,25.3747237486,25.9546093825,26.6391136107,27.408205512,28.2335774499,29.0814299726,29.9155048459,30.7000888977,31.4027466054,31.9965935055,32.4619883381,32.787591514,32.9708026559,33.0176423621,32.9421766604,32.7655945612,32.5150422037,32.2222973886,31.9223433449,31.6518773993,31.4477739637,31.3455145733,31.377600544,31.5719739007,31.9504862659,32.5274704762,33.3084840013,34.289305848,35.455278712,36.7810944475,38.2311212749,39.7603618616,41.3161074358,42.8403094354,44.2726246567,45.5540057149,46.6306161203,47.4577646302,48.0034954651,48.2514555623,48.2026961791,47.8761531008,47.307677394,46.5476401087,45.6572890043,44.7041725774,43.7570483922,42.8807458042,42.1314509247,41.552824996,41.173264911,41.0044816555,41.0414283543,41.2634746819,41.6366162283,42.1164376479,42.6515211052,43.1870034245,43.668027564,44.0428943034,44.2657851606,44.2989856569,44.1145803918,43.695613993,43.0367164798,42.1441849374,41.0355062765,39.7383091399,38.2887539378,36.7294092647,35.1067145362,33.4681816656,31.8595305417,30.3219736915,28.8898596754,27.588853544,26.4347821881,25.4332112838,24.5797572329,23.8610787362,23.2564428366,22.7397218217,22.2816512626,21.8521661055,21.4226316294,20.9677998077,20.4673492131,19.9069069909,19.2785021331,18.580456297,17.816775806,16.9961585382,16.1307639136,15.2349067524,14.3238241277,13.4126312278,12.5155347399,11.6453199655,10.813080881,10.0281291999,9.29800443632,8.62851277239,8.02374426454,7.48604814707,7.0159759706,6.61222444645,6.27161947517,5.98917897041,5.75827726723,5.57091288993,5.41805969451,5.29006392765,5.17704059587,5.06922419403,4.95724152683,4.83229572414,4.68627600383,4.51183121905,4.30246033613,4.05267437389,3.75826926647,3.4167189014,3.02765829505,2.5933884619,2.11930809361,1.61417102531,1.09008506804,0.562202802855,0.048099166774,-0.433126394533,-0.861952247455,-1.21965155506,-1.48952994853,-1.6580972588,-1.71610028295,-1.65935788432,-1.48935079676,-1.21352503739,-0.845271349865,-0.403547292915,0.087881720032,0.601586526522,1.10797605457,1.57708809031,1.98055519368,2.29359256727,2.49683016887,2.57780854932,2.53197928558,2.36309434162,2.08292844617,1.71034669951,1.26979744769,0.789369786053,0.298599224963,-0.173770377249,-0.601858005744,-0.964359852474,-1.24576025928,-1.43695547048,-1.53528142699,-1.54401284867,-1.47146485989,-1.32986871934,-1.13420238662,-0.901133328165,-0.648180231203,-0.39313276538,-0.153698145702,0.0527156177482,0.209205238265,0.299696180095,0.309486522921,0.226055815579,0.0401112481958,-0.253230777371,-0.653289485241,-1.15288569642,-1.73782277786,-2.38694159754,-3.07284569123,-3.76331212331,-4.42331669083,-5.01752066541,-5.51300037456,-5.88195894009,-6.10414722702,-6.1687409099,-6.0754707916,-5.83487804259,-5.46765514736,-5.00312538478,-4.47699740055,-3.92859815323,-3.39783202498,-2.92213416889,-2.53368238216,-2.25710532142,-2.10787795247,-2.09153124147,-2.20372752665,-2.43117275653,-2.75325973651
2,-58.6575868411,-59.1123330553,-59.5227852877,-59.8997408537,-60.2512454984,-60.5817248866,-60.8917967865,-61.1787848245,-61.4378390835,-61.6634695263,-61.8512319859,-61.999283749,-62.1095490383,-62.1882986844,-62.2460415555,-62.2967324538,-62.3564052175,-62.4414249023,-62.5666069197,-62.7434668545,-62.9788414715,-63.2740645177,-63.6248006272,-64.0215497037,-64.4507454306,-64.8962966339,-65.3413685515,-65.7701790772,-66.1695951546,-66.5303543786,-66.8477994692,-67.1220876166,-67.3579095814,-67.563812052,-67.7512513243,-67.9335126335,-68.1246101215,-68.3382465577,-68.5868724745,-68.8808539345,-69.2277448897,-69.6316653655,-70.0928054425,-70.6070984519,-71.166125481,-71.7573191489,-72.3645224089,-72.9689266783,-73.5503666616,-74.0888950295,-74.5665092051,-74.9688649574,-75.2867945604,-75.5174541367,-75.6649544415,-75.7403772809,-75.7611397484,-75.7497340231,-75.7319357464,-75.7346333028,-75.7834776887,-75.9005819772,-76.1025056468,-76.3987395523,-76.7908624855,-77.2724736291,-77.8299232314,-78.4437756119,-79.0908549582,-79.7466561351,-80.3878589805,-80.9946712005,-81.5527438655,-82.0544525179,-82.499410365,-82.8941694136,-83.2511600566,-83.587007963,-83.920438267,-84.270022143,-84.6520339774,-85.0786662491,-85.556796338,-86.0874221229,-86.6657927685,-87.2821708736,-87.9230854008,-88.5728824834,-89.2153601671,-89.8352847638,-90.4196265829,-90.9584124995,-91.4451604077,-91.8769238701,-92.2540238307,-92.5795714001,-92.8588894073,-93.0989233,-93.3077005933,-93.4938612733,-93.666248553,-93.8335276394,-94.0037939326,-94.184141641,-94.3801859808,-94.5955613299,-94.831447019,-95.0861946509,-95.355139633,-95.6306711172,-95.9026086025,-96.158894047,-96.3865627368,-96.5729127386,-96.7067586965,-96.7796353564,-96.7868110776,-96.7279815933,-96.6075387795,-96.4343474381,-96.2210134957,-95.9826860166,-95.7354968563,-95.4947971529,-95.273389782,-95.0799731118,-94.9179988224,-94.7851045238,-94.6732142879,-94.5693150425,-94.4568256594,-94.3173921295,-94.1328795747,-93.8873000892,-93.5684201426,-93.1688329558,-92.6863550567,-92.1237022505,-91.487504598,-90.7868168016,-90.0313546474,-89.2297283148,-88.3879430857,-87.508396935,-86.5895286474,-85.6261712539,-84.6105591328,-83.5338389834,-82.387858615,-81.1669633522,-79.8695249044,-78.4989648386,-77.0641110074,-75.5788289759,-74.0609831937,-72.530883348,-71.0094420778,-69.5163005767,-68.0681670088,-66.6775653627,-65.3521206112,-64.0944230075,-62.9024327337,-61.7703169203,-60.6895629536,-59.6501906354,-58.6418929838,-57.6549685087,-56.6809594947,-55.7129708597,-54.745701121,-53.7752606482,-52.7988755008,-51.8145751071,-50.8209415084,-49.816964158,-48.8020072475,-47.7758659282,-46.7388703555,-45.6919944081,-44.6369368557,-43.5761610381,-42.5128977695,-41.4511288651,-40.3955714205,-39.3516750854,-38.3256288454,-37.3243557979,-36.3554607655,-35.4270918495,-34.5476853418,-33.7255818527,-32.9685252083,-32.2830789799,-31.6740138118,-31.1437293151,-30.6917765239,-30.3145416231,-30.0051403299,-29.7535562863,-29.5470369959,-29.3707380058,-29.2085814459,-29.0442708663,-28.8623836359,-28.6494484364,-28.3949116951,-28.0919049255,-27.7377444536,-27.3341228433,-26.8869825477,-26.4060917081,-25.904365471,-25.3969913575,-24.900423658,-24.4313108606,-24.0054144741,-23.6365706212,-23.3357404458,-23.1101930373,-22.9628644531,-22.8919362121,-22.8906736824,-22.9475572397,-23.0467264826,-23.1687410247,-23.2916416227,-23.3922732543,-23.4478071629,-23.4373723234,-23.3436807989,-23.1545111669,-22.8639058974,-22.4729473822,-21.9900053005,-21.4303935202,-20.8154328074,-20.1709788862,-19.5255351933,-18.9081175278,-18.346066992,-17.863014498,-17.4771842906,-17.2001878043,-17.0364072925,-16.9830073408,-17.0305488663,-17.1641215586,-17.3648627009,-17.6116970495,-17.8831167491,-18.1588239209,-18.4210821366,-18.6556648994,-18.8523448202,-19.0049286309,-19.1109007592,-19.170782426,-19.1873372584,-19.1647556022,-19.1079297202,-19.0218959839,-18.9114756312,-18.7811017598,-18.6347859042,-18.4761592885,-18.3085238963,-18.1348644281,-17.9577983178,-17.7794702614,-17.6014235978,-17.4244980873,-17.2488086275,-17.0738507739,-16.8987574893,-16.722700665,-16.5453961842,-16.3676395576,-16.191777533,-16.0220154187,-15.8644733516,-15.72693671,-15.6182913276,-15.5476849258,-15.5235029113,-15.5522810719,-15.6376939314,-15.7797532103,-15.9743272992,-16.2130545238,-16.4836767246,-16.770771795,-17.0568196835,-17.3235001849,-17.5530959908,-17.729863355,-17.8412364905,-17.8787502304,-17.8385968914,-17.7217744536,-17.5338293108,-17.2842417838,-16.9855395957,-16.6522478149,-16.2997902506,-15.9434474547,-15.59745427,-15.274291447,-14.9841977379,-14.7349057197,-14.5315878036,-14.3769870023,-14.2716974787,-14.2145508879,-14.2030561142,-14.2338342327,-14.3029905856,-14.4063745882,-14.5396961689,-14.6984936065,-14.8779761975,-15.0727905608,-15.2767761354,-15.4827807425,-15.6826007849,-15.8670941849,-16.0264897322,-16.1508871326,-16.2309118277,-16.2584624239,-16.2274707708,-16.1345881887,-15.9797166646,-15.7663194269,-15.5014680789,-15.1956097841,-14.8620645106,-14.5162865228,-14.1749444607,-13.8548893064,-13.5720882714,-13.34060407,-13.1716926379,-13.0730789016,-13.0484521193,-13.0972028439,-13.2144056131,-13.3910368218,-13.6144064291,-13.8687747893,-14.1361210862,-14.3970266836,-14.631634473,-14.8206434017,-14.9462949073,-14.9933038718,-14.9496802965,-14.8073799832,-14.5627157495,-14.216459271,-13.7735720252,-13.2425253592,-12.6342052675,-11.9604444635,-11.2322766763,-10.4580572591,-9.64163114854,-8.78074640439,-7.86590437298,-6.87980521016,-5.79749337659,-4.58723852624,-3.2121119547,-1.63214733656,0.193083986039,2.30169169875,4.72670385462,7.49354170949,10.61792647,14.1043734843,17.9453797412,22.1213528621,26.6012666421,31.343963206,36.2999605764,41.4135744188,46.6251321691,51.8730533224,57.0955940914,62.2321055599,67.2237248587,72.0134989389,76.5460195581,80.7667163631,84.6210042662,88.0535055583,91.007562891,93.4252265357,95.2478427152,96.4172979559,96.8778982591,96.5787916389,95.4767854865,93.5393701128,90.7477379026,87.0995832969,82.6114803936,77.32065882,71.2860296948,64.5883466843,57.3294187919,49.6303215677,41.6285856593,33.4743821795,25.3257787455,17.3432099778,9.68338768958,2.49295929057,-4.09770511642,-9.98017016789,-15.0726028143,-19.3230561429,-22.7110668821,-25.2473999261,-26.9719384866,-27.9498915854,-28.2666478187,-28.0217239688,-27.3223231949,-26.2770229338,-24.9900598879,-23.5565803417,-22.0590965079,-20.5652536219,-19.1268859282,-17.780235743,-16.5471361239,-15.4369165484,-14.4487797848,-13.57441048,-12.8006037154,-12.111737016,-11.4919462073,-10.9269009695,-10.405109305,-9.91871245506,-9.46376467741,-9.04002667084,-8.65033658132,-8.29965571015,-7.99391313276,-7.73879003112,-7.53858714112,-7.39530554658,-7.30804268459,-7.27276494024,-7.28247070436,-7.32770940287,-7.39737899365,-7.47969222293,-7.5631846099,-7.63763684436,-7.69480090126,-7.7288502497,-7.73651576494,-7.71691486143,-7.67112578856,-7.60159549411,-7.51149185036,-7.40411477241,-7.28246415672,-7.149027851,-7.00580619292,-6.85454001637,-6.69706634827,-6.5356991031,-6.37352675587,-6.21453674989,-6.06351379342,-5.92570796538,-5.80631733301,-5.70986746573,-5.63958947417,-5.59689692607,-5.58104235854,-5.58900106,-5.6155904264,-5.65379608313,-5.69524920182,-5.73078798026,-5.75104034724,-5.7469806089,-5.71043356551,-5.63451890161,-5.51404114152,-5.34583343073,-5.12905694917,-4.86544453106,-4.55946157906,-4.21834512606,-3.85197814176,-3.47256412836,-3.09408648296,-2.73156428144,-2.40014530478,-2.11410265764,-1.88581919655,-1.72485206597,-1.63716729359,-1.6246220838,-1.68475151229,-1.81088865532,-1.99261497665,-2.2165038242,-2.46708807543,-2.72795821726,-2.9828840149,-3.21685393157,-3.41694118863,-3.57293083612,-3.67767403096,-3.72716911505,-3.72039964401,-3.65898373311,-3.54670451574,-3.38899644189,-3.1924554561,-2.96442293053,-2.71266612065,-2.44514716274,-2.16984539376,-1.89458116296,-1.62678827497,-1.37319784117,-1.13942512726,-0.92948563644,-0.745298101714,-0.586252248249,-0.448923475156,-0.327004733988,-0.211501370777,-0.0912031396663,0.0465852058366,0.215102701522,0.427051209523,0.69346045952,1.02259110147,1.41896568422,1.8826085794,2.40856289327,2.98673816303,3.60212839256,4.23542445087,4.86402464506,5.46341885499,6.00888384445,6.47738336845,6.84952409796,7.11138747509,7.2560479817,7.28460531149,7.20660072395,7.03974989797,6.80899623237,6.5449598073,6.28191945246,6.05551140087,5.90035224451,5.84779307208,5.92398599333,6.14839820109,6.53285048751,7.08109697221,7.7889107709,8.64460402774,9.62989355973,10.7210238695,11.8900719134,13.1063750719,14.3380378919,15.5534793109,16.722978412,17.8201648141,18.8233839363,19.7168536478,20.4915231549,21.1455513029,21.6843408045,22.1200956374,22.4709073915,22.7594179396,23.0111453488,23.2525928521,23.509283457,23.8038731235,24.1544923823,24.5734499493,25.0664037633,25.6320675379,26.2624777954,26.943801307,27.6576199088,28.3825925442,29.0963656214,29.7775834105,30.407840243,30.9734156135,31.4666422958,31.8867775514,32.2402803656,32.5404445726,32.8063967771,33.0615327987,33.3315273048,33.6420984029,34.0167348929,34.4745956022,35.0287690257,35.6850420447,36.4412754898,37.2874289804,38.206223936,39.1743858392,40.1643662207,41.1464115129,42.0908199026,42.9702096608,43.761615432,44.448235668,45.0206773695,45.4775840673,45.8255866109,46.0785778571,46.2563742587,46.3828825311,46.4839324341,46.5849638247,46.708766184,46.8734620909,47.0909038159,47.3656164315,47.6943747146,48.0664485904,48.4644968805,48.8660352479,49.2453550393,49.5757292233,49.8317139089,49.9913423407,50.0380146299,49.9619107704,49.7607947736,49.4401305428,49.0124910645,48.4963069588,47.9140634314,47.2901106877,46.6482959086,46.0096489416,45.3903541939,44.8002159959,44.2417763129,43.7101781576,43.1937932374,42.6755561301,42.1348767855,41.5499448155,40.9001981915,40.1687095183,39.3442470576,38.422795441,37.4083712425,36.3130380296,35.1561083011,33.9626072374,32.7611552543,31.5814929206,30.451914188,29.3968854773,28.4351052593,27.5782018788,26.8301825488,26.1876458725,25.6406709539,25.1742160693,24.7698126354,24.4073313662,24.0666240165,23.7288964802,23.3777344292,22.9997678015,22.5850136451,22.126969889,21.6225421706,21.0718738766,20.4781229669,19.8471977916,19.1874377568,18.5092100469,17.824392961,17.1457282,16.4860450158,15.8573844484,15.2700780515,14.7318586182,14.2470962537,13.8162576187,13.4356764531,13.0976990321,12.7912310664,12.5026669775,12.2171342043,11.9199408836,11.5980816316,11.2416388485,10.8449192321,10.4071873681,9.93289804408,9.43138187553,8.91599905923,8.40283683969,7.90908033788,7.45122651144,7.04333127306,6.69547743118,6.41262743605,6.19398431017,6.03293224252,5.91757073066,5.83179808861,5.75684635875,5.67312434108,5.56219219239,5.40867309843,5.20190773008,4.93717737127,4.61636147547,4.24795178171,3.84641186602,3.43093988206,3.02375444562,2.64807160987,2.32596984359,2.07634823774,1.91317186611,1.84416986691,1.87010933697,1.98471457453,2.17524035768,2.42364502016,2.70825044579,3.00572806842,3.2932176347,3.5503721431,3.76112937329,3.9150372013,4.00800397307,4.04240237814,4.02652017804,3.97341795584,3.89931667054,3.82168973548,3.75726881374,3.72018343921,3.72043832161,3.76288936635,3.84681547208,3.96610755865,4.11002067996,4.26437093026,4.41301523793,4.53943424063,4.62824672577,4.66651437767,4.64473982963,4.55750946046,4.4037758015,4.18680647496,3.91384496986,3.59553495165,3.24515856536,2.87773542355,2.50902673471,2.15449062024,1.82824060457,1.54206827034,1.304600105,1.12066348173,0.990933570243,0.911919229567,0.876321097658,0.873760748193,0.891839201515,0.917440652463,0.938158194362,0.943688384677,0.927026739411,0.885302001093,0.820116718052,0.737315434721
